Frequency,Nominal,Min,Max
118.99579824514814,0.00019863023307409978,0.00015005608184134382,0.00025258296762554474
120.9958676980334,0.00019873724400930906,0.00015010343858506427,0.0002527953209789224
123.4908903522847,0.0001988735397821862,0.00015016376875144445,0.0002530656939319025
126.49110640673517,0.0001990405610975196,0.00015023771899574373,0.000253396882978004
128.9961239727768,0.00019918262887587778,0.00015030063797458288,0.00025367847346315645
130.99618315050253,0.00019929829763460768,0.0001503518778970235,0.00025390765241360507
133.49157276772192,0.00019944539686544675,0.00015041705756723518,0.00025419899235832325
136.49175799292792,0.00019962535584914923,0.00015049682094195332,0.00025455525009453894
138.99640283115244,0.00019977818238580075,0.0001505645788459813,0.0002548576525766034
140.99645385611655,0.00019990244190842355,0.00015061968607741109,0.00025510342458080065
143.49216006458332,0.0002000602587829614,0.00015068969498657368,0.00025541543320445765
146.4923206178399,0.00020025304969202676,0.00015077524658130016,0.0002557963910016257
148.9966442575134,0.00020041654453081844,0.00015084782215338578,0.0002561192892548011
152.47950681976906,0.00020065038472614132,0.00015095166893930068,0.0002565808018056844
157.48015748023622,0.0002009928924768181,0.0001511038559962725,0.00025725620418274334
162.48076809271922,0.0002013459176305584,0.00015126082566861427,0.0002579515678788668
167.48134224444226,0.00020170940447371014,0.00015142256513557865,0.0002586666935379014
172.4818831066034,0.00020208329475840574,0.000151589061057499,0.00025940137166826575
177.48239349298848,0.00020246752763112907,0.00015176029956506044,0.0002601553823021404
182.4828759089466,0.00020286203955933082,0.00015193626624813536,0.0002609284946478832
187.48333259252675,0.00020326676425652784,0.0001521169461443865,0.00026172046673656233
192.48376554920156,0.00020368163260530068,0.00015230232372753764,0.0002625310450635728
197.48417658131498,0.00020410657257904238,0.00015249238289531252,0.0002633599642251468
202.48456731316588,0.0002045415091617192,0.00015268710695722477,0.00026420694655131976
207.4849392124643,0.0002049863642663822,0.0001528864786218522,0.00026507170173548534
212.4852936087578,0.00020544105665188875,0.0001530904799839769,0.0002659539264616933
217.48563170931544,0.0002059055018386578,0.00015329909251143528,0.00026685330403027475
222.48595461286988,0.00020637961202245095,0.000153512297031622,0.0002677695039829064
227.48626332154652,0.00020686329598763975,0.000153730073717718,0.0002687021817281228
232.4865587512534,0.00020735645901865467,0.00015395240207469993,0.0002696509781679497
237.48684174075834,0.00020785900281083646,0.00015417926092515909,0.0002706155193271076
242.4871130596428,0.0002083708253799961,0.0001544106283944985,0.0002715954159860513
247.48737341529164,0.00020889182097140861,0.00015464648189644355,0.0002725902633183022
252.48762345905195,0.0002094218799676749,0.00015488679811777843,0.0002735996405344748
257.48786379167467,0.00020996088879635292,0.00015513155300309614,0.00027462311053320904
264.9528259898354,0.0002107870055816234,0.00015550750023970598,0.00027618535822316324
272.48853186877426,0.0002116304172680533,0.00015589219762907712,0.00027777345446954277
277.48873851023217,0.00021220400733452336,0.0001561544512249046,0.0002788485866785689
282.4889378365107,0.00021278591677628743,0.00015642101152380766,0.0002799353699822939
287.489130229301,0.00021337600632723782,0.00015669184968341836,0.00028103326268635057
292.4893160441933,0.000213974132111811,0.0001569669360059743,0.00028214170467789055
297.4894956128703,0.000214580145552366,0.0001572462399212324,0.00028326011719268705
302.48966924508346,0.00021519389327724902,0.00015752972996938873,0.00028438790260432346
307.48983723043597,0.00021581521703012272,0.00015781737378378055,0.00028552444423793046
312.4899998399949,0.00021644395357996705,0.00015810913807343848,0.00028666910620992364
317.49015732775086,0.0002170799346328545,0.0001584049886054351,0.00028782123329674337
324.96153618543843,0.00021804795899142747,0.00015885684841809595,0.0002895626577385806
334.9626844888845,0.00021936117004745607,0.00015947261768115088,0.00029190308383833074
344.9637662132068,0.00022070006179895896,0.00016010406562661715,0.00029426058212639474
354.96478698597696,0.00022206303055742683,0.00016075087010367613,0.0002966289756642188
364.9657518178932,0.00022344838210793859,0.00016141269173155622,0.0002990017805626196
379.86839826445157,0.0002255666607054168,0.0001624345562952858,0.00030255270619695593
394.96835316262997,0.00022772039135735532,0.00016348459504341323,0.0003060773901481869
404.96913462633177,0.00022917645382106855,0.00016420272652659695,0.00030839717680283536
414.9698784249286,0.00023064500667151655,0.00016493389951802043,0.00031068471323450166
425.9577443831724,0.0002322722675267412,0.00016575293041525815,0.0003131532253685864
438.45182175468267,0.0002341322496026734,0.00016670118241371546,0.000315885411505101
451.45320909259243,0.00023607391798073456,0.00016770616737321758,0.00031862787042660957
466.42255520075355,0.00023831607097068056,0.0001688887383108525,0.0003216376943850506
481.45612468842893,0.00024055172020949407,0.0001700925817944535,0.00032446708772832276
493.9635614091388,0.0002424025643348899,0.00017111166311235525,0.0003266574564315231
507.444578254611,0.00024438127123838614,0.00017222698536565912,0.0003288292136788232
522.446169475861,0.00024654732083066646,0.00017348147626674516,0.0003309925575773122
539.9073994677235,0.0002490147650578097,0.0001749630421682354,0.00033313452627310004
557.4495492867494,0.0002514070293451905,0.00017645908572284902,0.00033486034460547
572.4508712544684,0.0002533794782657967,0.00017775064175689384,0.00033595645291942136
589.9152481501051,0.00025557224516535885,0.0001792640214005846,0.00033675957164746873
607.4537019394976,0.00025764040987829776,0.00018077985990679586,0.00033706533134937665
622.4548176373928,0.0002592925296290191,0.00018207758246136058,0.00033688692144320933
637.4558808262733,0.0002608238940889195,0.0001833704505361366,0.00033630355729036873
652.4568951279464,0.0002622235154386218,0.00018465516552870247,0.00033531147688218725
667.4578638386097,0.0002634807960990561,0.00018592832312436453,0.00033391082945589837
681.4690014960329,0.0002645185930345191,0.00018710327865369115,0.0003322425701376943
693.9740629158989,0.0002653260342720046,0.00018813884539472132,0.00033045830430969187
707.4602462329598,0.0002660628536203717,0.00018923999353601402,0.0003282209291319813
723.4500673854416,0.00026675179310570076,0.00019051885974126888,0.0003251785641729505
740.9453421137082,0.00026726655245394587,0.00019187999198964014,0.00032138840507588384
757.4628703771558,0.0002675185624693661,0.00019312280257555617,0.00031925433358548025
772.463591375024,0.00026753817709912985,0.0001942127943369426,0.00031777079527972086
789.9367063252599,0.0002673009388642227,0.0001954303642462258,0.0003155518704190852
809.9382692526635,0.00026669829089402247,0.0001967465617519875,0.0003124226452137514
829.9397568498572,0.000265731983025153,0.00019797214677708138,0.0003086777016996153
849.9411744350311,0.0002644035784022762,0.00019909828234441877,0.0003051116145728502
869.9425268372618,0.00026271847434090466,0.0002001164072163634,0.000305398298670169
889.9438184514795,0.00026068574908597514,0.00020101832591534703,0.0003050280220456863
909.9450532861861,0.00025831792202584623,0.0002017962991646362,0.00030399766069862626
929.9462350050136,0.00025563063805855084,0.00020244313296915079,0.000302313941857454
949.9473669630333,0.00025264228979319874,0.00020295226446116803,0.0002999931788541549
969.9484522385712,0.0002493735933199381,0.0002033178425986745,0.00029706066907213746
989.9494936611666,0.00024584713431306007,0.000203534801830695,0.00029354979437153794
1009.9504938362078,0.00024208690125212742,0.00020026259063039143,0.0002895008811156749
1029.9514551666987,0.00023811782164770304,0.0001967285493184128,0.00028495988893752124
1049.952379872535,0.0002339653154984679,0.00019316377912168502,0.0002799770028953121
1069.9532700076204,0.00022965487798585465,0.0001895781988876938,0.00027460520273443756
1089.954127475097,0.00022521170084577175,0.0001859812094663617,0.0002688988764160135
1109.9549540409287,0.000220660339157842,0.0001823816533137728,0.0002629125342544508
1134.9008767288885,0.00021485195712071177,0.0001778919099676039,0.00025510869238973895
1164.903429473877,0.00020777365858964752,0.00017253619019254985,0.0002454306542832774
1189.9579824514813,0.0002018274055304418,0.00016811375756315517,0.0002372024434491253
1209.9586769803338,0.00019706414389977732,0.00016425240874640972,0.00023056793546867124
1234.908903522847,0.00019113235193935453,0.00015747236002464876,0.00022227829248174806
1264.9110640673518,0.00018408081495049122,0.0001497398043139242,0.00021241591913873269
1289.9612397277679,0.00017828613149429938,0.000143624101270282,0.0002043250959931257
1309.9618315050252,0.00017372309990820457,0.00013895425119087466,0.00019797486983347954
1334.9157276772194,0.00016812630807422406,0.00013338543260281742,0.00019022276480947477
1364.917579929279,0.00016157470588126001,0.00012705641587773886,0.00018331478697199803
1389.9640283115243,0.00015626400925930882,0.00012206415971514431,0.0001788163228098155
1409.9645385611655,0.00015212613370501715,0.00011825862582923475,0.0001751995496151848
1434.9216006458332,0.00014709787250246929,0.00011372566390581364,0.00017118217448369404
1464.923206178399,0.00014126671843081725,0.00010857781077480499,0.00016722029932523893
1489.966442575134,0.00013657889435189738,0.00010451840925879617,0.0001638584759239882
1524.7950681976906,0.0001303174450227868,0.00009921090704115274,0.00015908160326915383
1574.8015748023622,0.00012188415571463646,0.00009222092148056619,0.0001522004098356052
1624.807680927192,0.00011407354757328277,0.00008590280393962031,0.00014532729392784986
1674.8134224444227,0.00010685723971103178,0.00008018300294293351,0.00013854167080145862
1724.818831066034,0.00010020073291767557,0.00007499564668413149,0.00013190724538212237
1774.823934929885,0.00009406641184330691,0.0000702821481773487,0.0001254730350570992
1824.8287590894658,0.00008841567424892895,0.0000659906371735236,0.00011927491328481039
1874.8333259252674,0.0000832103854004097,0.00006207532144036097,0.00011333740817273722
1924.8376554920158,0.00007841382638293175,0.000058495839524067,0.00010767555713978101
1974.84176581315,0.00007399127276921965,0.000055216640659117053,0.0001022966823805937
2024.8456731316587,0.00006991030991003634,0.000052206410581489795,0.00009720200528180946
2074.8493921246427,0.00006614096532991969,0.00004943755145577007,0.00009238805888929033
2124.8529360875777,0.00006265571781915744,0.000046885717759054295,0.00008784788645959704
2174.8563170931548,0.00005942942649226245,0.00004452940629412575,0.00008357203290959384
2224.859546128699,0.000056439210666529556,0.00004234959654554494,0.00007954934691631914
2274.862633215465,0.00005366430215907778,0.000040329436696393266,0.00007576761672916103
2324.865587512534,0.00005108588481633127,0.000038453970369229095,0.00007221406429825144
2374.8684174075834,0.00004868693118734752,0.00003670989927213178,0.00006887572153181758
2424.8711305964284,0.000046452042757674776,0.00003508537724828816,0.00006573971040496526
2474.8737341529163,0.00004436729770229037,0.000033569831639942285,0.00006279344595570764
2524.8762345905193,0.00004242010841258524,0.0000321538083201482,0.00006002477836901056
2574.8786379167464,0.000040599089892019964,0.00003082883718171461,0.00005742208763152535
2649.528259898354,0.00003809463305001112,0.000029004860246438508,0.00005382273469821694
2724.8853186877427,0.000035794796052817506,0.000027327946594550975,0.00005050266097081762
2774.887385102322,0.00003438467603132472,0.000026298378908164544,0.00004845978202654546
2824.889378365107,0.00003305800047465677,0.000025328674071801007,0.000046533940077368885
2874.89130229301,0.00003180843653973738,0.00002441427747698163,0.00004471717100540954
2924.893160441933,0.00003063022070438535,0.000023551056311748808,0.00004300207003481649
2974.8949561287036,0.000029518101514269204,0.00002273525420138078,0.00004138176166529027
3024.896692450835,0.000028467288436137608,0.000021963451324148077,0.00003984986820559242
3074.89837230436,0.00002747340617507012,0.000021232529280145722,0.00003840047794547924
3124.899998399949,0.00002653245386938053,0.00002053964009266849,0.00003702811371066981
3174.9015732775088,0.000025640768632284138,0.00001988217880838311,0.00003572770232057203
3249.615361854384,0.00002439351927982086,0.000018960975833509224,0.000033909418173854536
3349.6268448888454,0.000022866316761214356,0.000017830601258012806,0.000031684785957753595
3449.637662132068,0.000021484085088937594,0.00001680492727562886,0.000029674041064838617
3549.64786985977,0.000020229064812881986,0.00001587133447163551,0.000027851426659258604
3649.6575181789317,0.000019086110181221446,0.000015019050864610505,0.000026194766802102327
3798.6839826445157,0.0000175642829566995,0.000013880785700706694,0.000023995141104286855
3949.6835316263,0.000016208682579299494,0.00001286385272678159,0.000022041699219820256
4049.6913462633174,0.00001540098404674605,0.0000122562094837816,0.000020881476092123304
4149.698784249285,0.000014655949095031466,0.000011694585029061572,0.000019813801671843108
4259.577443831724,0.000013902148602060136,0.000011125192715837449,0.00001873628318054897
4384.518217546826,0.000013118284823005339,0.000010531832495802398,0.000017618838899542954
4514.532090925924,0.000012375858421770467,0.000009968603099339809,0.00001656354488805337
4664.225552007536,0.000011602365401668275,0.000009380433145744081,0.00001546760229396851
4814.561246884289,0.00001090174168159342,0.000008846494625104622,0.000014477986734172862
4939.635614091388,0.000010370185558579289,0.000008440570402532645,0.000013729381829165437
5074.4457825461095,0.000009843511747011871,0.0000080376404510299,0.0000129896295233242
5224.461694758609,0.000009307487775419344,0.000007626814780442281,0.00001223876255606475
5399.0739946772355,0.000008742208989003122,0.000007192690375696527,0.000011449317310836848
5574.495492867493,0.000008229660556292868,0.000006798309938972638,0.000010735583352524538
5724.508712544684,0.000007830155683619718,0.000006490355406352709,0.000010180797150212743
5899.152481501051,0.000007404790150258648,0.00000616191481269028,0.000009591619283767513
6074.537019394976,0.000007015603133303101,0.0000058609283230789185,0.000009053873481421307
6224.548176373929,0.000006709652702609411,0.000005623953923089405,0.000008632122986542196
6374.558808262734,0.000006425940229461188,0.000005403918225868022,0.000008241802333978562
6524.568951279463,0.000006162343206146582,0.000005199228518615127,0.000007879840441611022
6674.578638386097,0.000005916987554466874,0.000005008475610541159,0.000007543533530044075
6814.690014960328,0.000005702822175719062,0.0000048417877461582564,0.0000072504623630753786
6939.740629158989,0.0000055229112856952195,0.0000047016211218589785,0.000007004628172617714
7074.602462329597,0.00000533983987158171,0.000004558854714931181,0.000006754827057858355
7234.500673854416,0.000005136321661042701,0.000004399979797902016,0.000006477537457402841
7409.453421137081,0.000004929008605929078,0.000004237958084423863,0.000006195533146414466
7574.628703771558,0.000004746680969988526,0.0000040953045008961806,0.0000059479001708734975
7724.6359137502395,0.000004591403426741689,0.000003973687854685165,0.000005737306559974598
7899.3670632526,0.000004421854579596654,0.000003840752511741396,0.0000055076829179152856
8099.382692526635,0.00000424138819330842,0.0000036990946175142826,0.000005263638064289973
8299.39756849857,0.000004074095298771088,0.0000035676144978014155,0.000005037761645911107
8499.411744350311,0.0000039187105213017045,0.0000034453435903800055,0.000004828277708203439
8699.425268372619,0.0000037741173154797597,0.0000033314259956503404,0.000004633623046701061
8899.438184514796,0.0000036393273770204636,0.0000032251030736047877,0.000004452417244793981
9099.45053286186,0.000003513463310827782,0.000003125700448379117,0.000004283437530075464
9299.462350050137,0.0000033957439785703357,0.0000030326169988970973,0.000004125597583033665
9499.473669630333,0.0000032854720616708585,0.0000029453154954928105,0.000003977929603104241
9699.484522385714,0.0000031820234642437335,0.0000028633146066347017,0.0000038395690716164195
9899.494936611665,0.000003084838250719904,0.0000027861820509161674,0.000003709741757350662
10099.504938362077,0.0000029934128688017668,0.000002713528710203162,0.0000035877525947858432
10299.514551666985,0.000002907293453128784,0.0000026450035525278212,0.000003472976132381355
10499.52379872535,0.0000028260700410223646,0.0000025802892396650925,0.000003364848302224294
10699.532700076204,0.0000027493715607650296,0.0000025190983156868743,0.0000032628593058400947
10899.54127475097,0.0000026768614764676687,0.000002461169890147683,0.0000031665474461795448
11099.549540409287,0.0000026082339928314682,0.000002406266743760912,0.0000030754937643780345
11349.008767288886,0.0000025276591203048365,0.0000023416983002584697,0.0000029687255528105525
11649.03429473877,0.0000024374956001263884,0.0000022693046927425,0.0000028494262993423245
11899.579824514814,0.0000023673354250941505,0.0000022128576160212245,0.000002756731400385128
12099.58676980334,0.0000023143992748930094,0.0000021701900704951494,0.0000026868834026955155
12349.08903522847,0.000002251893581059688,0.0000021197149937228493,0.0000026045153856179995
12649.110640673518,0.000002181512134117289,0.000002062754720930075,0.0000025119074165960014
12899.612397277679,0.0000021264132582284665,0.0000020180606692338715,0.000002439518590855834
13099.618315050251,0.000002084628848857536,0.000001984096869640298,0.000002384696341400014
13349.157276772194,0.000002035050280601743,0.0000019437127450836077,0.0000023197363143993144
13649.17579929279,0.000001978924574668545,0.0000018978822834333597,0.0000022463139675503516
13899.640283115243,0.00000193475614015974,0.0000018617231098270031,0.0000021886272900880205
14099.645385611653,0.0000019011128451030327,0.0000018341169029076503,0.0000021447504244195277
14349.216006458331,0.0000018610246171217185,0.000001801144791761543,0.0000020925445057964776
14649.23206178399,0.0000018154294266277808,0.0000017635396761222074,0.0000020332680232092263
14899.66442575134,0.0000017793837241380057,0.0000017337258714635218,0.0000019864883787591536
15247.950681976907,0.0000017320415388975746,0.0000016944260377812832,0.0000019251849301294694
15748.015748023621,0.0000016692512337377893,0.0000016420674541437345,0.0000018441009744495257
16248.07680927192,0.0000016118786701594782,0.0000015939446004409727,0.000001770279421685574
16748.134224444228,0.0000015592758760533815,0.0000015495524753727504,0.0000017028489782872232
17248.18831066034,0.0000015108887671526265,0.0000015068070731162773,0.0000016410650947906448
17748.23934929885,0.0000014662413251852407,0.0000014574200237377669,0.0000015842884536272247
18248.28759089466,0.000001424922804465552,0.0000014118853060533788,0.0000015319676069314713
18748.333259252675,0.000001386577321257905,0.0000013697901721150867,0.0000014836248725011071
19248.376554920156,0.0000013508953312431016,0.0000013307755769553055,0.0000014388448063237235
19748.4176581315,0.0000013176066131403244,0.000001294528016543344,0.0000014039165654991509
20248.456731316586,0.0000012864744613960473,0.000001260772779168683,0.0000013767518447047764
20748.493921246427,0.0000012572908552555297,0.000001229268336885697,0.0000013511950274134183
21248.52936087578,0.0000012298724207736166,0.0000011998016618023159,0.0000013270940940347497
21748.563170931546,0.000001204057040240499,0.0000011721842966951195,0.0000013043147995886034
22248.59546128699,0.0000011797009929019977,0.0000011462490440483867,0.000001282738274766136
22748.62633215465,0.0000011566765337891789,0.0000011205982767645112,0.000001262258995478135
23248.65587512534,0.0000011348698354884876,0.0000010955879750752039,0.000001242783057478804
