Frequency,Nominal,Min,Max
118,1.0018433130178053,0.9046596706944898,1.110893335209281
120,1.0019038082470697,0.904654915851009,1.1110842142923507
122,1.0019651483965182,0.9046499957256762,1.1112781910338385
125,1.0020587237932344,0.9046422962874165,1.1115749515982467
128,1.0021541506981746,0.904634200667778,1.111878648909134
130,1.0022187821006199,0.9046285760741728,1.1120849573987008
132,1.0022842134481462,0.9046227641783207,1.1122943335142623
135,1.0023838396459215,0.9046136850307268,1.1126141355317831
138,1.002485211862491,0.904604158188545,1.1129408033668458
140,1.00255374692234,0.9045975502457534,1.1131623851230787
142,1.0026230331226482,0.9045907312326618,1.1133870014563867
145,1.0027283484025635,0.9045800960807775,1.1137296004755237
148,1.0028352955421274,0.9045689577940983,1.114078987437399
150,1.0029074825011208,0.9045612441741433,1.114315670954826
155,1.003090981536204,0.904540913445372,1.1149204808704576
160,1.0032786716910567,0.9045190200999116,1.1155439093522128
165,1.0034703729750234,0.9044954776343187,1.116185830222286
170,1.0036658991843723,0.904470196841893,1.1168461118629054
175,1.0038650578630053,0.9044430858187893,1.1175246170794626
180,1.0040676502631518,0.9044140499706429,1.1182212029591632
185,1.0042734713061976,0.9043829920197236,1.1189357207251744
190,1.0044823095437412,0.904349812012663,1.1196680155862808
195,1.0046939471190328,0.9043144073287736,1.1204179265820393
200,1.0049081597289211,0.9042766726889909,1.1211852864234393
205,1.0051247165864472,0.9042365001654806,1.121969921329081
210,1.005343380384238,0.9041937791919296,1.1227716508568866
215,1.0055639072588451,0.9041483965745578,1.1235902877313575
220,1.0057860467561892,0.9041002365038897,1.1244256376663992
225,1.0060095417982737,0.9040491805673114,1.12527749918376
230,1.0062341286513319,0.9039951077624515,1.1261456634270943
235,1.0064595368955815,0.9039378945114217,1.127029913971719
240,1.0066854893967732,0.9038774146759453,1.1279300266300962
245,1.0069117022797047,0.9038135395734246,1.128845769253107
250,1.0071378849039032,0.903746137993962,1.1297769015271828
255,1.0073637398416637,0.903675076218392,1.1307231747673683
260,1.0075889628586523,0.9036002180373479,1.1316843317064114
270,1.008036262062998,0.9034385552923415,1.1336502234079495
275,1.0082576956139468,0.9033514660455405,1.1346543987724391
280,1.0084772119538132,0.9032600110735961,1.1356723385917642
285,1.0086944726284905,0.9031640420411349,1.1367037393914217
290,1.0089091323265627,0.9030634082609088,1.1377482877716818
295,1.009120838883901,0.9029579567211888,1.1388056601721521
300,1.0093292332926387,0.9028475321145046,1.1398755226334742
305,1.0095339497147344,0.9027319768677595,1.1409575305563568
310,1.0097346155003986,0.9026111311737633,1.1420513284581664
315,1.009930851211628,0.9024848330242253,1.1431565497273175
320,1.0101222706511024,0.9023529182442331,1.1442728163757085
330,1.0104890823419754,0.9020715714777694,1.1465369154784857
340,1.0108318272694938,0.901765735550522,1.1488403648289174
350,1.0111471768266642,0.9014340229434048,1.1511797054006385
360,1.011431699128534,0.9010750153295172,1.1535512719983803
370,1.0116818615003773,0.9006872650727884,1.1559511852078261
390,1.0120644902483567,0.8998196093430828,1.1608194150878715
400,1.0121894168807986,0.8993366771756512,1.1632788310087854
410,1.0122649128521686,0.8988189528125308,1.165748777177097
420,1.012286997424653,0.8982648687091288,1.1682241878307102
432,1.0122372815676988,0.8975497396802242,1.1711943791585502
445,1.0120817583164403,0.8967101435976094,1.1744010326534713
458,1.011811507114479,0.8957996168914831,1.1775834335046005
475,1.011269393993055,0.8935150065328498,1.1816852760566863
488,1.0106984697577912,0.8896476743687093,1.1847574776275123
500,1.0100420602780384,0.8859438586469991,1.1875288040588843
515,1.0090351134245927,0.8811323028216214,1.1908855454548646
530,1.0078073776072873,0.8761181657951408,1.1940981041608187
550,1.0058019966288307,0.869117474184905,1.198108872545423
565,1.0040033470110792,0.8636313974918391,1.2008744362989723
580,1.0019369636746334,0.8579448786484464,1.2033981571314478
600,0.9987427526108859,0.8500546281196083,1.2063320701120197
615,0.9960018632420982,0.8439093604072784,1.2081669641931683
630,0.9929523724940614,0.8375728777991048,1.2096516291838435
645,0.9895838945927027,0.8310493388676715,1.2107525098654253
660,0.985887129839446,0.8243435248982748,1.211436040033319
675,0.9818539824356421,0.8174608203983792,1.2116689590457383
688,0.9780812142800812,0.8113573197155067,1.2114810994403264
700,0.974366772196411,0.8056130012349815,1.2109676857040914
715,0.9694073349613876,0.7982892157420598,1.2098425186565662
732,0.9633584953371707,0.789805057597869,1.2078839386633675
750,0.9564564528304244,0.7806210977306792,1.2049773358564264
765,0.9503149345681526,0.7728201904751544,1.2018717135645127
780,0.9438218659228235,0.7648943192718133,1.1981228468830105
800,0.9346255055266035,0.7541476173536601,1.1920949498586573
820,0.9248274370508831,0.7432165754937361,1.1848640545272375
840,0.9144479950905661,0.7321236049490517,1.1764135068827863
860,0.9035123888805934,0.7208914432042983,1.166740567317647
880,0.8920503211471579,0.7095429431913512,1.1558568865787244
900,0.880095518705259,0.6981008714478499,1.1437885574083981
920,0.8676851905463884,0.6865877185111784,1.1305757270485917
940,0.8548594315667593,0.6733827982830761,1.1162717815232082
960,0.8416605914619243,0.6585703283433769,1.1009421379403526
980,0.828132628624344,0.6437523844025022,1.0846627035258725
1000,0.8143204681782151,0.6278995217873558,1.0675180776163755
1020,0.8002693816962424,0.6106942415929213,1.0495995839416756
1040,0.7860244038467339,0.5938334929356037,1.031003224561132
1060,0.7716297984296494,0.5773431059886924,1.0118276439745917
1080,0.7571285832003073,0.5612435623416322,0.9921721831327011
1100,0.7425621197613009,0.545550485632991,0.9800030861035484
1120,0.7279697718119056,0.5302751402365113,0.9677053529504751
1150,0.7061131844765622,0.5081606090063681,0.9486259530938708
1180,0.6843958265487202,0.4870129433747768,0.9288869163494903
1200,0.6700454539723143,0.4734507690599559,0.9154178581605423
1220,0.6558287619729297,0.460313699645943,0.9017410986036317
1250,0.6348057979779776,0.44139291031300365,0.8809110420414573
1280,0.6142059381839413,0.4233918281996484,0.8598030129946199
1300,0.6007361649930476,0.41188753035082115,0.8456301602683133
1320,0.5874935765639997,0.40076901633060874,0.8314124237459216
1350,0.5680804198421576,0.38479175035284213,0.8100648657996065
1380,0.5492345730442637,0.36962240582469336,0.7887728607070934
1400,0.5369967551952607,0.3599397610123769,0.7746503303700005
1420,0.5250250644155079,0.3505881816954183,0.7606118180748858
1450,0.5075724779972655,0.33715700643409363,0.7408686984111077
1480,0.4907293550609851,0.32440801304780154,0.72421375730102
1500,0.47983890959316644,0.31626956399202033,0.7131222596916769
1550,0.4537850286409695,0.2971100125674808,0.6855431425670775
1600,0.4293691850153453,0.2795208294016249,0.658342533607637
1650,0.4065286912516542,0.26335610451350433,0.6316960965881422
1700,0.3851873854540183,0.24848214714948044,0.6057446211275198
1750,0.36526140585830713,0.2347773899738571,0.580596238141309
1800,0.3466634707614875,0.2221318704309876,0.5563296340342789
1850,0.32930595647952665,0.2104464773711796,0.5329977839724592
1900,0.3131030369757054,0.19963208658777312,0.5106318335743919
1950,0.297972108623121,0.18960866432464513,0.48924486627012975
2000,0.2838346818962397,0.18030438748125635,0.46883538781497136
2050,0.2706168835612192,0.171654808940431,0.4493904346396898
2100,0.2582496801973838,0.16360208309037638,0.4308882683201638
2150,0.24666890705026637,0.15609425801044255,0.41330065661534793
2200,0.23581516488399298,0.14908463539977093,0.39659476556366413
2250,0.22563363091445154,0.14253119608288378,0.3807347005209785
2300,0.21607381722773128,0.13639608709530404,0.365682739882571
2350,0.2070893005320478,0.13064516543854632,0.35140030609200734
2400,0.19863743997123676,0.12524759326235688,0.3378487163277896
2450,0.19067909447829548,0.12017547925913558,0.3249897513566371
2500,0.18317834731578506,0.11540356129307366,0.3127860763913797
2550,0.17610224268211,0.11090892563810066,0.30120154299702606
2600,0.169420537286207,0.10667075860225424,0.29020139651339555
2700,0.1571315389397553,0.09888978220233527,0.2698229564662444
2750,0.15147531945284642,0.09531399036023352,0.26038304754277636
2800,0.14611526650132464,0.09192837678292887,0.25140432502282717
2850,0.1410315566121752,0.08871979147916283,0.24286003833939626
2900,0.1362059348535633,0.08567618818893948,0.23472500015589162
2950,0.1316215770004479,0.08278651697010084,0.22697553030776418
3000,0.12726296423924832,0.08004062848999949,0.2195893915570363
3050,0.12311576937705007,0.07742918863672309,0.21254572036176086
3100,0.1191667535609216,0.07494360223690812,0.2058249550990183
3150,0.11540367256729873,0.07257594481809546,0.1994087635750146
3200,0.11181519178363986,0.07031890148534962,0.19327997117911744
3300,0.10512078475535326,0.06611012202303422,0.18182125425307105
3400,0.09900828949245304,0.06226898756099536,0.17133195236090498
3500,0.0934127643135435,0.058753994784523575,0.16170951666475977
3600,0.08827795868884054,0.0555293120304167,0.15286387401238943
3700,0.08355498032799706,0.05256387947958805,0.144715808471109
3900,0.07517927305028431,0.0473060809241449,0.13024150512687013
4000,0.07145648336716616,0.044969425711625016,0.12379925744539161
4100,0.06800398402658636,0.04280251592208651,0.11782057353842636
4200,0.0647963113296013,0.04078930768750818,0.11226264057530512
4320,0.06123870643882742,0.03855647278843883,0.10609518284328288
4450,0.05770639439384625,0.03633946267553936,0.09996869106958026
4580,0.05447210701186507,0.034309418313339564,0.09435696970661173
4750,0.05063873835504944,0.03190319283704325,0.08770366158991806
4880,0.04797503547081879,0.0302310392387282,0.08307938568892094
5000,0.045699303655144304,0.028802331460470443,0.07912811296498283
5150,0.043076423225115124,0.027155545031752982,0.07457366341471983
5300,0.04067417731083349,0.025647138572153668,0.07040207384905729
5500,0.03777327452499068,0.023825408692511665,0.06536443145014136
5650,0.035797711392264835,0.022584636165331812,0.061933760852315535
5800,0.033974142049669,0.021439212571833476,0.058767149848325914
6000,0.03175314902735097,0.020044002787080368,0.054910657518231716
6150,0.030228278631951207,0.019085986617459902,0.05226310796966321
6300,0.02881148596461261,0.018195790826241908,0.049803396563065226
6450,0.027492791361767972,0.01736715912918781,0.04751418405399557
6600,0.026263340784659393,0.016594540523479206,0.045380082326841265
6750,0.02511525692456328,0.01587299598158506,0.04338739763824339
6880,0.024180616397921347,0.015285552504063351,0.041765317142673355
7000,0.02336385202855373,0.014772164424380596,0.0403479213445658
7150,0.022400366397362825,0.014166512868084966,0.038676047339373146
7320,0.021379465215102676,0.013524721457055959,0.03690471747300993
7500,0.02037353518957979,0.012892292060470198,0.03515954865198541
7650,0.019589107140001085,0.012399086284778009,0.033798793621186284
7800,0.01884964014992712,0.011934121012477065,0.03251614554127616
8000,0.017927839218470576,0.01135446747361625,0.030917388073669318
8200,0.01707285647538567,0.010816791081371858,0.02943468361255936
8400,0.016278384072723164,0.010317132958697194,0.028057063398902342
8600,0.015538841501120393,0.009851990288384955,0.026774824319573114
8800,0.0148492772131385,0.009418254677453605,0.025579357734379624
9000,0.014205285426321181,0.009013160026609877,0.024463004686122045
9200,0.013602935487552814,0.008634238265638652,0.023418932953761296
9400,0.013038711677476188,0.008279281626852347,0.022441032267346377
9600,0.012509461728247039,0.007946310375695676,0.021523824685683784
9800,0.012012352642584103,0.0076335451145677635,0.020662387682694315
10000,0.011544832654327842,0.0073393829338039744,0.019852287925731828
10200,0.011104598373897441,0.007062376810918793,0.01908952408171146
10400,0.010689566326432892,0.006801217762098761,0.01837047727239554
10600,0.01029784822401102,0.006554719333550597,0.01769186803236088
10800,0.009927729422359375,0.006321804088551966,0.017050718812756945
11000,0.009577650101835825,0.00610149180197361,0.016444321229385328
11200,0.009246188785937292,0.005892889120045622,0.015870207381530648
11500,0.008781097769377674,0.005600175849653509,0.015064694425849354
11800,0.00835108129373924,0.005329525042179283,0.014319988500389945
12000,0.008082172490681522,0.005160268744268945,0.013854319694194662
12200,0.00782639908166366,0.004999275739332767,0.013411418772611872
12500,0.007465544222217056,0.004772133372014512,0.012786593053564457
12800,0.007129796817092847,0.004560787297908786,0.01220527926720903
13000,0.006918778596321964,0.004427951816288355,0.011839940796925387
13200,0.006717291161005515,0.004301113139740603,0.01149111685159263
13500,0.006431704414974513,0.004121328244847371,0.010996719676561588
13800,0.0061645608665574095,0.003953148798002193,0.010534275536361581
14000,0.005995936673567744,0.003846989382223868,0.010242387756038418
14200,0.0058343948069328605,0.0037452868696077057,0.009962768573072205
14500,0.005604512890071051,0.003600556090591628,0.009564872395192818
14800,0.005388481926110019,0.003464542274003486,0.009190967154398872
15000,0.005251612987885905,0.0033783673987932334,0.008954083566839785
15500,0.0049323414900771575,0.0031773436532245977,0.00840153552831174
16000,0.0046425566711852835,0.002994879156304841,0.00790005012774746
16500,0.0043787354418569815,0.002828757247710783,0.00744352221564855
17000,0.004137865672584206,0.0026770826221190584,0.007026732735435913
17500,0.003917359767460585,0.0025382269976399257,0.006645198730205521
18000,0.0037149848263390447,0.0024107852076554357,0.0062950521610946044
18500,0.003528805853553057,0.0022935394915939403,0.005972941380918242
19000,0.0033571393000343527,0.002185430280371458,0.005675950548161446
19500,0.003198514844360391,0.0020855321606838037,0.005401533342359408
20000,0.003051643784072896,0.0019930339948377534,0.005147458151778231
20500,0.0029153927620832864,0.0019072223948062138,0.004911762518746996
21000,0.0027887618232200016,0.0018274679189368341,0.004692715097646264
21500,0.002670866004041042,0.0017532134904535356,0.004488783742092417
22000,0.002560919820312241,0.0016839646382181483,0.004298608618035077
22500,0.0024582241423583284,0.0016192812392704019,0.004120979458001592
23000,0.0023621550472268074,0.0015587705047103466,0.003954816243184738
23500,0.002272154314537936,0.0015020809994671191,0.003799152735387999
24000,0.002187721294748326,0.0014488975253760764,0.003653122388225658
24500,0.0021084059279064845,0.0013989367280081524,0.003515946252637847
25000,0.002033802730551009,0.0013519433125726667,0.003386922560460622
25500,0.0019635456002862033,0.0013076867742603355,0.0032654177251198358
26000,0.001897303313377348,0.001265958564619753,0.0031508585432957078
27000,0.0017756897924179932,0.0011893482588900928,0.002940546451655424
27500,0.0017197977281175401,0.0011541382187235745,0.002843892287601383
28000,0.0016668732560569954,0.0011207971001689627,0.0027523715875290254
28500,0.0016167098855146874,0.0010891948801980882,0.002665627062600267
29000,0.0015691187795065873,0.0010592126503863007,0.0025833319787639014
29500,0.0015239269740387532,0.0010307414959459076,0.0025051870736734435
30000,0.001480975803463863,0.0010036815044763092,0.0024309178305689364
30500,0.0014401195051220756,0.0009779408875546158,0.002360272062654226
31000,0.0014012239803099747,0.000953435200721084,0.0022930177681978825
31500,0.0013641656918761528,0.00093008664946146,0.0022289412222271997
32000,0.0013288306814920484,0.0009078234705185061,0.002167845275450592
33000,0.0012629173820330082,0.000866293075644091,0.002053880505666894
34000,0.0012027328641918606,0.0008283709378891483,0.001949823900253738
35000,0.001147631703904979,0.00079365059415368,0.001854558953656073
36000,0.0010970568823796074,0.0007617812483932878,0.0017671221198968618
37000,0.0010505256429795232,0.0007324588666155024,0.0016866783370221643
39000,0.0009679668129683073,0.0006804302421535366,0.0015439554946298508
40000,0.0009312507187070923,0.0006572903643580748,0.0014804855494079052
