-0.08316
-0.0722112
-0.0833394
-0.0809551
-0.0803757
-0.0874918
-0.0809615
-0.0859341
-0.0959953
-0.0791499
-0.0733279
-0.0946915
-0.0876493
-0.0952069
-0.0844834
-0.0782646
-0.0888571
-0.0931225
-0.0835719
-0.0892929
-0.0883069
-0.0840057
-0.0888949
-0.0823687
-0.081232
-0.0911252
-0.0804388
-0.0767656
-0.0900404
-0.0913939
-0.0898066
-0.0915352
-0.0845028
-0.0956031
-0.0932226
-0.0820904
-0.0888992
-0.0870251
-0.0774049
-0.084438
-0.0844249
-0.0780836
-0.0892076
-0.0725066
-0.0629117
-0.0795453
-0.0768197
-0.0792757
-0.079576
-0.0754371
-0.0784579
-0.0882726
-0.0756155
-0.0819533
-0.0928811
-0.0831304
-0.0855182
-0.0788595
-0.0778696
-0.0925807
-0.0883857
-0.0777722
-0.0908216
-0.0926871
-0.089612
-0.100402
-0.0947514
-0.0943649
-0.0983307
-0.0769094
-0.0744982
-0.0850555
-0.0788822
-0.0734315
-0.0688313
-0.0578096
-0.0662468
-0.0667079
-0.0532897
-0.0549462
-0.0548253
-0.0478157
-0.0507658
-0.0478191
-0.0437211
-0.0566407
-0.0494875
-0.0479468
-0.0576856
-0.0556187
-0.06041
-0.0645943
-0.0610471
-0.065416
-0.073684
-0.0814154
-0.0840128
-0.0973047
-0.0963458
-0.0999636
-0.0988697
-0.0934089
-0.100938
-0.0979829
-0.0866066
-0.0915842
-0.0925012
-0.0886523
-0.0972425
-0.0916681
-0.0937317
-0.10347
-0.0925139
-0.0881647
-0.0923043
-0.0760043
-0.0757902
-0.0842611
-0.0805501
-0.0890241
-0.0892268
-0.0766227
-0.0780266
-0.087059
-0.0873601
-0.087627
-0.0843468
-0.0866921
-0.0994069
-0.0907018
-0.0822154
-0.093359
-0.089151
-0.0841777
-0.0836458
-0.0737905
-0.0789073
-0.0875284
-0.0789487
-0.0810056
-0.0922614
-0.0851945
-0.085742
-0.0860128
-0.0836814
-0.0940287
-0.091413
-0.0770742
-0.0797796
-0.0803482
-0.0820256
-0.0869159
-0.0840176
-0.0819314
-0.0873416
-0.0804512
-0.078264
-0.0867856
-0.0817591
-0.0835815
-0.0835234
-0.0765234
-0.0852338
-0.092478
-0.0761885
-0.0791396
-0.083925
-0.0777371
-0.0843205
-0.0766069
-0.0706957
-0.0818054
-0.0794485
-0.0755164
-0.0862645
-0.0838155
-0.0807777
-0.0852293
-0.0743661
-0.0846307
-0.0963046
-0.0836141
-0.0877304
-0.0906499
-0.0774751
-0.0801523
-0.0796878
-0.0746859
-0.0874508
-0.0792748
-0.0649737
-0.0749067
-0.0812269
-0.0786307
-0.0809208
-0.0848989
-0.0861628
-0.0969447
-0.0928201
-0.096795
-0.0971982
-0.0915454
-0.0835043
-0.082917
-0.0769281
-0.0764749
-0.0786603
-0.0595856
-0.0682837
-0.0767221
-0.0678454
-0.0721451
-0.078098
-0.0757304
-0.0858347
-0.0786261
-0.0718486
-0.0859009
-0.094811
-0.0918086
-0.0889436
-0.0818727
-0.0833849
-0.0891115
-0.0709104
-0.073886
-0.0820689
-0.0760865
-0.0795931
-0.0781934
-0.075221
-0.0859033
-0.0869671
-0.0694039
-0.0810641
-0.0859358
-0.0804662
-0.084356
-0.0761104
-0.0774245
-0.0866779
-0.0758193
-0.0744562
-0.0830409
-0.0755618
-0.0800571
-0.0822405
-0.0873631
-0.0931458
-0.0893725
-0.0735128
-0.0805577
-0.080749
-0.0694835
-0.0706994
-0.0715189
-0.0690949
-0.0850935
-0.0798334
-0.0730105
-0.0836666
-0.0807359
-0.0741691
-0.0737873
-0.0735088
-0.0823685
-0.0888476
-0.0714362
-0.0751709
-0.078917
-0.0774273
-0.0799632
-0.079528
-0.0759855
-0.0853848
-0.0778883
-0.0674633
-0.0760504
-0.0742737
-0.0684308
-0.0734199
-0.0676509
-0.0706152
-0.0817397
-0.0747473
-0.0728463
-0.083312
-0.077607
-0.0823386
-0.0819925
-0.0755266
-0.0841452
-0.086013
-0.0703687
-0.07466
-0.0779041
-0.0709502
-0.0734819
-0.0663681
-0.0660878
-0.0833803
-0.0759689
-0.0719008
-0.0804604
-0.075889
-0.0740577
-0.0781587
-0.0723729
-0.0809801
-0.0872113
-0.0716899
-0.0745836
-0.0836927
-0.0758958
-0.0774609
-0.0769902
-0.0716777
-0.0789937
-0.0764369
-0.0696504
-0.0810641
-0.081739
-0.0781229
-0.0751111
-0.0682188
-0.0679332
-0.0775285
-0.0778026
-0.0745636
-0.0806101
-0.0763793
-0.0763472
-0.0791714
-0.0681173
-0.0778715
-0.0816803
-0.0691516
-0.0746891
-0.0802858
-0.0771437
-0.0839911
-0.0805439
-0.0779075
-0.0882936
-0.0844309
-0.0760176
-0.0871804
-0.0813685
-0.0746727
-0.0748565
-0.0712635
-0.076618
-0.0831011
-0.07097
-0.0728226
-0.0836945
-0.0765906
-0.0829846
-0.0824783
-0.078796
-0.0899285
-0.0870114
-0.0773635
-0.0912035
-0.0870299
-0.0816408
-0.0842279
-0.0791124
-0.0817768
-0.0874427
-0.0764835
-0.0759065
-0.0878335
-0.0797771
-0.0839811
-0.0860755
-0.0796335
-0.089223
-0.0865726
-0.0779598
-0.0851433
-0.0973926
-0.0880623
-0.0815251
-0.0726447
-0.0703522
-0.0868316
-0.0837177
-0.0743595
-0.0829251
-0.0798727
-0.0806125
-0.0864787
-0.0790788
-0.0808804
-0.0872153
-0.0722748
-0.078186
-0.0876205
-0.0843098
-0.0869326
-0.0854907
-0.0769387
-0.0847873
-0.08461
-0.0743009
-0.0849668
-0.0840449
-0.0786828
-0.0861685
-0.0803299
-0.0845445
-0.0935805
-0.0810883
-0.0741733
-0.0845805
-0.0789986
-0.0820387
-0.0805031
-0.0776733
-0.0820979
-0.0839883
-0.0744916
-0.0805209
-0.0821226
-0.0752044
-0.0789824
-0.0760687
-0.0723202
-0.0897925
-0.0822277
-0.0852245
-0.0904926
-0.0869999
-0.0847753
-0.0888237
-0.080817
-0.0860656
-0.092152
-0.0765023
-0.0795721
-0.0915689
-0.0811516
-0.078503
-0.0777255
-0.072504
-0.0899684
-0.0849309
-0.0733608
-0.0857523
-0.086282
-0.077247
-0.0890311
-0.0803696
-0.0824342
-0.0919401
-0.0811151
-0.0761621
-0.0805491
-0.073442
-0.0735181
-0.0797524
-0.074835
-0.0869944
-0.0911254
-0.0786452
-0.0873199
-0.091174
-0.0801679
-0.0809609
-0.077414
-0.0774097
-0.0919745
-0.0793588
-0.0718109
-0.0829812
-0.0763482
-0.0770591
-0.0854896
-0.0750763
-0.0805718
-0.0859094
-0.0764508
-0.076979
-0.0838379
-0.0767143
-0.0822941
-0.0819809
-0.07859
-0.0911699
-0.0880721
-0.0791412
-0.0829581
-0.0795394
-0.0782317
-0.0831139
-0.0767295
-0.0770442
-0.0831197
-0.074562
-0.072871
-0.0865376
-0.0863054
-0.0902174
-0.0878213
-0.0809165
-0.0866106
-0.0922821
-0.0789185
-0.0835385
-0.0879447
-0.0759511
-0.0767588
-0.0748788
-0.0719186
-0.0829757
-0.0739093
-0.0705166
-0.0882887
-0.0904156
-0.0876621
-0.0858744
-0.0819546
-0.0880969
-0.0918855
-0.0791183
-0.0822048
-0.0952256
-0.0841957
-0.0828038
-0.0820547
-0.0763947
-0.0889898
-0.0770318
-0.0621403
-0.0722822
-0.086615
-0.0838347
-0.0909147
-0.0862077
-0.0878724
-0.0922171
-0.0772271
-0.0775979
-0.0929439
-0.0870867
-0.0867345
-0.086808
-0.081516
-0.0867444
-0.0884563
-0.0756097
-0.0748746
-0.080133
-0.0723519
-0.076774
-0.0773609
-0.071045
-0.0831939
-0.0750769
-0.0687397
-0.0883133
-0.0912001
-0.0871822
-0.085776
-0.07865
-0.0813389
-0.0866783
-0.0726027
-0.0685473
-0.0764298
-0.0720939
-0.0770301
-0.0777451
-0.0737161
-0.084526
-0.0845078
-0.0783559
-0.0854225
-0.084507
-0.0792541
-0.0889317
-0.0791021
-0.0802167
-0.0881304
-0.0770082
-0.076141
-0.0909659
-0.082084
-0.0800675
-0.0820104
-0.0758313
-0.0855939
-0.085546
-0.0740166
-0.0814262
-0.0846366
-0.0768683
-0.0886046
-0.0866583
-0.0845867
-0.0927273
-0.0790598
-0.069078
-0.0869528
-0.0836996
-0.0837174
-0.0775925
-0.0682605
-0.0789958
-0.0850857
-0.0772021
-0.0764046
-0.0834485
-0.0741069
-0.0768709
-0.07935
-0.0770521
-0.0913765
-0.0900981
-0.079986
-0.0882769
-0.091713
-0.0789877
-0.0803626
-0.0744106
-0.0764752
-0.0839575
-0.0767034
-0.073398
-0.0837015
-0.0845951
-0.0839142
-0.0869263
-0.0817604
-0.0906568
-0.0940491
-0.0805371
-0.0803912
-0.0844534
-0.077598
-0.0793483
-0.065369
-0.0635418
-0.0781736
-0.0703558
-0.0712296
-0.0839051
-0.0802121
-0.0815655
-0.0855217
-0.0724838
-0.0805654
-0.0892056
-0.0763142
-0.0796744
-0.0857796
-0.0787324
-0.078624
-0.0785672
-0.0735005
-0.0811392
-0.0721006
-0.0652285
-0.0831434
-0.0834311
-0.0777334
-0.0800054
-0.0735311
-0.0785456
-0.0878962
-0.0798104
-0.0755668
-0.0841487
-0.0785179
-0.0787725
-0.0782536
-0.0707011
-0.0843311
-0.0873634
-0.0749692
-0.0838674
-0.0888814
-0.0792391
-0.084203
-0.0804907
-0.082508
-0.0888306
-0.0819626
-0.0776921
-0.0888681
-0.0887354
-0.0874244
-0.0861615
-0.0778178
-0.0835455
-0.0883358
-0.0724369
-0.0730547
-0.0831209
-0.0759683
-0.0812874
-0.0813945
-0.0767593
-0.0865118
-0.083113
-0.0763812
-0.0903197
-0.0879591
-0.0833891
-0.0882579
-0.0796614
-0.0824258
-0.0896444
-0.076727
-0.0753453
-0.0884053
-0.0833502
-0.0846402
-0.0846902
-0.0778513
-0.0886146
-0.0965868
-0.0755105
-0.0816527
-0.0858183
-0.0853892
-0.0877666
-0.0805214
-0.0786832
-0.0896963
-0.0823783
-0.0753635
-0.0830396
-0.0773673
-0.0747919
-0.0816096
-0.0756604
-0.0861341
-0.0937742
-0.080968
-0.0841433
-0.0908703
-0.0860124
-0.0933588
-0.0924298
-0.0841261
-0.0875922
-0.0869333
-0.0721418
-0.0824037
-0.0789947
-0.0734526
-0.0793179
-0.0775993
-0.0795135
-0.0926999
-0.0802512
-0.0785312
-0.0861689
-0.0801898
-0.0844151
-0.0904338
-0.0812087
-0.0839051
-0.0853171
-0.069359
-0.0775448
-0.079062
-0.0750462
-0.0795369
-0.0719587
-0.0700651
-0.0793684
-0.0677004
-0.0616415
-0.0692173
-0.0659055
-0.0529658
-0.0529638
-0.0458093
-0.0528288
-0.0552186
-0.0323053
-0.0406379
-0.0483255
-0.0504625
-0.0561361
-0.0580708
-0.0548989
-0.0657782
-0.0673591
-0.0624082
-0.0785932
-0.0911357
-0.0860216
-0.0984831
-0.0947426
-0.0980066
-0.11296
-0.101681
-0.0960223
-0.101738
-0.0924345
-0.090895
-0.0926823
-0.0822711
-0.0845003
-0.089752
-0.0795124
-0.0871415
-0.0980101
-0.090908
-0.0970116
-0.0871005
-0.0852516
-0.0973447
-0.0921269
-0.0857239
-0.0934992
-0.090048
-0.0883438
-0.090222
-0.0791624
-0.0795275
-0.0853667
-0.0728466
-0.0762363
-0.0916842
-0.0865164
-0.0894169
-0.0865154
-0.0792754
-0.0888675
-0.0853883
-0.0754782
-0.0852858
-0.08608
-0.0806939
-0.0903515
-0.0842891
-0.0861029
-0.0918237
-0.0801132
-0.0790165
-0.0892088
-0.0834821
-0.0839777
-0.0879334
-0.0831363
-0.092198
-0.0896893
-0.0768684
-0.0881406
-0.0955606
-0.0887721
-0.0828884
-0.0760445
-0.0797404
-0.092523
-0.0844555
-0.0729085
-0.0833829
-0.0816924
-0.0837238
-0.0875819
-0.0810173
-0.0867279
-0.0925162
-0.0804897
-0.0841363
-0.0924444
-0.087272
-0.0838991
-0.0808613
-0.0759533
-0.089658
-0.0856187
-0.0704496
-0.0807795
-0.0777254
-0.0723673
-0.0770206
-0.0766366
-0.0787
-0.0893876
-0.0794465
-0.0782114
-0.0933806
-0.0873304
-0.0931609
-0.0944849
-0.0841021
-0.0878961
-0.0891268
-0.074425
-0.08724
-0.0871112
-0.0775366
-0.0843653
-0.0804886
-0.0777293
-0.088701
-0.082584
-0.0766931
-0.0876662
-0.0819365
-0.0818035
-0.0922413
-0.0850719
-0.0916279
-0.100665
-0.0865324
-0.0857358
-0.0934037
-0.0862268
-0.0863805
-0.0762063
-0.0707305
-0.0816474
-0.083348
-0.07172
-0.082672
-0.0808695
-0.0836397
-0.0884884
-0.0868829
-0.085696
-0.09215
-0.0807785
-0.077305
-0.0861508
-0.0764771
-0.0780425
-0.0776346
-0.0708663
-0.0791924
-0.0826624
-0.0735798
-0.0813373
-0.0861596
-0.0776991
-0.08254
-0.0828305
-0.0862161
-0.0971766
-0.0864102
-0.0738755
-0.0873469
-0.0837782
-0.0783808
-0.0787981
-0.069624
-0.0754252
-0.0811111
-0.0720724
-0.0796324
-0.0881601
-0.0841789
-0.0871589
-0.0798483
-0.0715047
-0.0897336
-0.0858741
-0.0760875
-0.0840611
-0.0851103
-0.0796087
-0.0838527
-0.0777258
-0.0796884
-0.0842086
-0.074407
-0.072895
-0.083017
-0.0788201
-0.0793203
-0.0801803
-0.0730267
-0.0821845
-0.0832938
-0.0723307
-0.0827305
-0.0850038
-0.0782575
-0.0823104
-0.0786681
-0.0788986
-0.0897476
-0.081532
-0.0756535
-0.087523
-0.0856153
-0.0834534
-0.08725
-0.0803715
-0.0790177
-0.0829521
-0.0713077
-0.0751241
-0.0866113
-0.081926
-0.0772321
-0.081185
-0.0763739
-0.0888144
-0.0791948
-0.0727497
-0.0804447
-0.0803456
-0.0741724
-0.0803113
-0.0743631
-0.0756753
-0.0847613
-0.0727298
-0.0774793
-0.0876772
-0.0759573
-0.0764921
-0.07702
-0.0692812
-0.0814706
-0.083119
-0.0708756
-0.0755174
-0.0867416
-0.0784096
-0.0819742
-0.0779993
-0.0778748
-0.0918119
-0.0839472
-0.072825
-0.0839922
-0.0844456
-0.0813194
-0.0806949
-0.0708122
-0.0769032
-0.0839859
-0.0747361
-0.0794087
-0.0847552
-0.0775661
-0.0820981
-0.0874144
-0.084736
-0.0938877
-0.0900081
-0.0778047
-0.0864206
-0.0887733
-0.0849285
-0.0897622
-0.0869928
-0.0915545
-0.098106
-0.0808448
-0.0799557
-0.0815293
-0.0772866
-0.0873559
-0.0906514
-0.0839277
-0.0901483
-0.0923358
-0.0812124
-0.0873959
-0.0911709
-0.0864535
-0.0964295
-0.092322
-0.0834425
-0.0943673
-0.0870537
-0.084888
-0.0900525
-0.0814672
-0.0791765
-0.0825308
-0.0797441
-0.0831797
-0.0918104
-0.0789556
-0.0877842
-0.0915898
-0.0839969
-0.0879547
-0.0867345
-0.0886887
-0.0977514
-0.0894118
-0.0821503
-0.0925869
-0.0922913
-0.0878751
-0.0906031
-0.0801127
-0.0824239
-0.0931407
-0.08225
-0.0840223
-0.0936713
-0.0875059
-0.0820096
-0.0819726
-0.0870641
-0.102716
-0.103642
-0.082439
-0.0859639
-0.0916897
-0.0883869
-0.0929742
-0.0863341
-0.0778998
-0.089912
-0.0863496
-0.0807403
-0.0921019
-0.089378
-0.0901228
-0.0915557
-0.0843651
-0.0896452
-0.100124
-0.085664
-0.0877486
-0.095113
-0.0860167
-0.0877999
-0.0837431
-0.0754303
-0.0864035
-0.0841039
-0.0741845
-0.0879415
-0.0922976
-0.0874101
-0.0938323
-0.084421
-0.0880816
-0.101763
-0.0902435
-0.087477
-0.0921011
-0.0881132
-0.0844512
-0.0859816
-0.0833886
-0.0897709
-0.0907361
-0.0783535
-0.0863196
-0.092596
-0.0871081
-0.0886063
-0.0821337
-0.0806445
-0.0885438
-0.0874327
-0.08338
-0.0933383
-0.0895759
-0.0865563
-0.0907676
-0.0872732
-0.0934978
-0.100424
-0.0810596
-0.0822998
-0.094423
-0.0880233
-0.0911319
-0.0871384
-0.0842586
-0.0899421
-0.0858826
-0.0841055
-0.0984824
-0.0960903
-0.0879315
-0.0905477
-0.0843157
-0.0869256
-0.089772
-0.0719231
-0.071218
-0.0870168
-0.0823067
-0.0847788
-0.0889764
-0.0841991
-0.0935118
-0.0977158
-0.081854
-0.0940609
-0.105488
-0.098815
-0.0986239
-0.0919188
-0.0850749
-0.0899609
-0.0815014
-0.0754053
-0.08516
-0.0801592
-0.0779751
-0.0813645
-0.0792667
-0.0915354
-0.098409
-0.0803403
-0.0844361
-0.0938177
-0.0887149
-0.0961486
-0.0948184
-0.0900718
-0.0961653
-0.0898459
-0.0823113
-0.0895079
-0.0891676
-0.0782376
-0.0851475
-0.0806948
-0.0831541
-0.0959648
-0.0850872
-0.0806433
-0.0937166
-0.0874844
-0.0896906
-0.0925553
-0.0838938
-0.0910367
-0.0917793
-0.0787386
-0.0876861
-0.0892636
-0.0789058
-0.0835252
-0.0787877
-0.0820892
-0.0957616
-0.0886537
-0.0832144
-0.094965
-0.092926
-0.0902774
-0.0976448
-0.0904436
-0.0982564
-0.102777
-0.0831045
-0.0835556
-0.0907955
-0.0834898
-0.0812485
-0.0767815
-0.0782683
-0.0892714
-0.0839921
-0.0751001
-0.0893161
-0.0953277
-0.0905266
-0.0937298
-0.0835568
-0.0899653
-0.10024
-0.088634
-0.0833512
-0.0958988
-0.0903446
-0.0871848
-0.0886165
-0.075371
-0.0894438
-0.090325
-0.0804056
-0.0884935
-0.0940213
-0.0862789
-0.0854084
-0.0803387
-0.0789855
-0.093844
-0.0906879
-0.0847054
-0.0928517
-0.0889746
-0.0912616
-0.0920066
-0.0800024
-0.082759
-0.0880267
-0.0760503
-0.0822567
-0.0905546
-0.0848463
-0.0880296
-0.0867259
-0.0834461
-0.0945586
-0.0958195
-0.0863704
-0.0970053
-0.0952688
-0.0867968
-0.0899931
-0.0836998
-0.0871575
-0.092396
-0.0809618
-0.0822401
-0.0921616
-0.0851857
-0.0872598
-0.0896582
-0.078129
-0.0875315
-0.0869512
-0.0775533
-0.0867812
-0.0918594
-0.0852325
-0.086972
-0.08297
-0.0790622
-0.0900065
-0.0814024
-0.0739768
-0.0832185
-0.0821034
-0.0845259
-0.0881484
-0.0792413
-0.0867416
-0.0928561
-0.0819762
-0.0862376
-0.0961935
-0.0939826
-0.0916905
-0.08135
-0.0768039
-0.0861253
-0.0846265
-0.0695204
-0.084074
-0.0835895
-0.0814465
-0.0863358
-0.0805223
-0.0879292
-0.0967312
-0.0852689
-0.0843083
-0.0968035
-0.0938061
-0.0946139
-0.094879
-0.0843662
-0.0903982
-0.0915563
-0.0794802
-0.0895479
-0.0931764
-0.0826651
-0.0897144
-0.0854802
-0.0863179
-0.100248
-0.0894957
-0.084627
-0.0957638
-0.0865108
-0.0880688
-0.0944686
-0.0826588
-0.0891027
-0.0914638
-0.0792807
-0.0894969
-0.0968106
-0.0895974
-0.0918297
-0.0932523
-0.09134
-0.0980701
-0.0937116
-0.0880487
-0.0982207
-0.0941881
-0.0917743
-0.0965563
-0.0886229
-0.0870789
-0.090744
-0.0816541
-0.0812545
-0.0873231
-0.0849043
-0.0853458
-0.0865775
-0.0799813
-0.0932424
-0.0977388
-0.0866848
-0.0932921
-0.0966707
-0.0856753
-0.0914341
-0.0901678
-0.0913511
-0.102166
-0.0925663
-0.0829546
-0.0922861
-0.0873955
-0.085389
-0.0867659
-0.0846536
-0.0952408
-0.0997483
-0.0868624
-0.0931333
-0.101704
-0.0925892
-0.0893457
-0.0878314
-0.0837531
-0.0971915
-0.0945734
-0.0825539
-0.093144
-0.0886634
-0.0839789
-0.0891534
-0.0746001
-0.0773052
-0.0823333
-0.0758158
-0.0787772
-0.0884189
-0.082079
-0.0802541
-0.0766522
-0.0661728
-0.0738628
-0.0742975
-0.0665659
-0.0673124
-0.0630412
-0.0541617
-0.0588298
-0.0535315
-0.0484604
-0.0584599
-0.0518129
-0.0466584
-0.0645843
-0.0630561
-0.0669851
-0.0770389
-0.0698243
-0.0786548
-0.0919085
-0.08332
-0.0991454
-0.106174
-0.104357
-0.109237
-0.100086
-0.0972419
-0.108288
-0.104611
-0.0915348
-0.101343
-0.0994141
-0.094759
-0.101326
-0.0958527
-0.0953069
-0.103098
-0.0913529
-0.0942752
-0.10399
-0.0949289
-0.0963375
-0.0976019
-0.0912396
-0.0971583
-0.0930312
-0.0789221
-0.0872077
-0.0906865
-0.0837233
-0.0873003
-0.0860701
-0.0849447
-0.0995287
-0.0903344
-0.0877371
-0.103357
-0.0992915
-0.0996559
-0.100087
-0.0887698
-0.0917433
-0.0967431
-0.0836523
-0.086232
-0.0894177
-0.080899
-0.0842032
-0.0853152
-0.0823053
-0.0940595
-0.0910223
-0.0817902
-0.0923155
-0.0912391
-0.0890135
-0.0959721
-0.0895797
-0.0877828
-0.0956359
-0.0825643
-0.0821475
-0.0919347
-0.0831531
-0.0833949
-0.0869256
-0.0837805
-0.0933276
-0.0921386
-0.0838525
-0.0924768
-0.0978056
-0.0912587
-0.100645
-0.0928825
-0.0864029
-0.093871
-0.0850296
-0.0797896
-0.0944034
-0.0865006
-0.0864005
-0.0899076
-0.0840891
-0.0904055
-0.0890511
-0.0779583
-0.0824922
-0.090035
-0.0776147
-0.0828426
-0.0896177
-0.0852422
-0.0979038
-0.0937072
-0.0906192
-0.101162
-0.100437
-0.0948413
-0.0936916
-0.0854799
-0.0883321
-0.0969472
-0.0856489
-0.082493
-0.0981525
-0.0893504
-0.0903255
-0.0932222
-0.0865947
-0.0959699
-0.099219
-0.0872561
-0.0915189
-0.0903976
-0.0842672
-0.0893617
-0.0849678
-0.0825341
-0.090986
-0.0831977
-0.0799151
-0.0910223
-0.0872824
-0.0844179
-0.0871013
-0.0826811
-0.0893403
-0.0997316
-0.0914371
-0.096525
-0.104125
-0.0969032
-0.0962545
-0.0910926
-0.0815518
-0.0911205
-0.0864646
-0.0755207
-0.0848799
-0.082408
-0.0797417
-0.0844835
-0.0778526
-0.0820537
-0.0926306
-0.0850059
-0.0849108
-0.0931424
-0.08312
-0.0839283
-0.086891
-0.0803811
-0.0869843
-0.0882714
-0.0775319
-0.0885329
-0.0916616
-0.085148
-0.0896508
-0.0882252
-0.0866375
-0.0973729
-0.0888378
-0.0732127
-0.0826131
-0.0875363
-0.0857072
-0.0972668
-0.0839452
-0.083447
-0.0871838
-0.0742879
-0.0809297
-0.088386
-0.0829635
-0.0893382
-0.0876394
-0.0836333
-0.0925089
-0.0888936
-0.0828942
-0.0935699
-0.0924503
-0.0848137
-0.0854468
-0.078997
-0.083247
-0.0922855
-0.0755347
-0.0772003
-0.0869038
-0.0802612
-0.0809026
-0.0844312
-0.0771393
-0.08677
-0.0885952
-0.0747794
-0.0849184
-0.0901969
-0.0837002
-0.0903111
-0.0873541
-0.0868123
-0.102131
-0.0931493
-0.0831818
-0.082475
-0.0754615
-0.0721679
-0.0756035
-0.0783807
-0.0827249
-0.0864071
-0.0734101
-0.0781055
-0.0837184
-0.0874952
-0.0942929
-0.0894572
-0.085186
-0.0946682
-0.0853938
-0.0754389
-0.0852308
-0.0843636
-0.079057
-0.0850812
-0.0786126
-0.0814114
-0.0899112
-0.0788346
-0.0817609
-0.088036
-0.0834736
-0.0845479
-0.0888423
-0.0829685
-0.0912267
-0.0920898
-0.080198
-0.0923748
-0.0949031
-0.0869235
-0.0898423
-0.0853538
-0.0884581
-0.10046
-0.0892317
-0.0829218
-0.0940077
-0.0918575
-0.0923995
-0.0890108
-0.0756871
-0.0824736
-0.087501
-0.0801032
-0.0817522
-0.0894214
-0.0821977
-0.0905183
-0.0865457
-0.0807097
-0.091898
-0.0870645
-0.0792545
-0.0929623
-0.0948476
-0.087571
-0.092286
-0.0860988
-0.0985464
-0.107607
-0.0901051
-0.0901922
-0.0964385
-0.0883565
-0.0920637
-0.0922239
-0.0857684
-0.0944538
-0.0974548
-0.0857873
-0.0935015
-0.0964796
-0.0910173
-0.0927438
-0.085924
-0.0867745
-0.0974586
-0.0915846
-0.0820324
-0.0908105
-0.0864239
-0.0847015
-0.0967885
-0.090264
-0.0954927
-0.0975651
-0.0846668
-0.0875692
-0.0953947
-0.0879706
-0.095514
-0.0937045
-0.0851038
-0.0959981
-0.0931056
-0.0845406
-0.095264
-0.0922018
-0.0881553
-0.089561
-0.0850554
-0.0881518
-0.0955735
-0.082146
-0.0827938
-0.0911113
-0.0846098
-0.0868498
-0.0902756
-0.0839387
-0.094851
-0.0947899
-0.0858471
-0.0952985
-0.0976263
-0.0888815
-0.0936155
-0.0899644
-0.0886612
-0.0962276
-0.0828077
-0.0781134
-0.0904835
-0.0890606
-0.0870737
-0.0903362
-0.0831112
-0.0933819
-0.0979992
-0.0827007
-0.0880564
-0.094738
-0.0917138
-0.0926798
-0.0893334
-0.0851682
-0.0962681
-0.0947167
-0.083397
-0.0940357
-0.0925262
-0.08811
-0.091806
-0.0832822
-0.0885274
-0.0996097
-0.0876572
-0.0840656
-0.093654
-0.0938333
-0.101106
-0.102097
-0.0852793
-0.0920183
-0.091395
-0.0787771
-0.0873655
-0.0876431
-0.0838159
-0.0925572
-0.085875
-0.0851181
-0.0973666
-0.0890009
-0.0854646
-0.0952264
-0.0908675
-0.0930162
-0.0996539
-0.0896287
-0.0914412
-0.0960033
-0.082005
-0.0906137
-0.0906513
-0.0828273
-0.0863157
-0.0937325
-0.0864028
-0.0944082
-0.084398
-0.0755237
-0.0924775
-0.0889207
-0.0789348
-0.0874211
-0.0808793
-0.0884732
-0.0996158
-0.0851387
-0.0845076
-0.0940667
-0.0897271
-0.0869324
-0.0876892
-0.0827902
-0.0925556
-0.0932702
-0.0823775
-0.0922026
-0.0914299
-0.0850206
-0.0919689
-0.0900557
-0.0910453
-0.0956755
-0.0864644
-0.0818861
-0.0955394
-0.0911446
-0.0850288
-0.0883417
-0.0794164
-0.0852708
-0.0947774
-0.0824796
-0.0874412
-0.0929347
-0.0853111
-0.0864218
-0.0854017
-0.0813079
-0.0957183
-0.0942494
-0.0825209
-0.0918893
-0.0907854
-0.08813
-0.0914063
-0.0861467
-0.0851893
-0.093492
-0.0822905
-0.07962
-0.0938495
-0.0930912
-0.094329
-0.0973512
-0.0904715
-0.100263
-0.103816
-0.0920483
-0.0952099
-0.093487
-0.0824957
-0.090151
-0.0855069
-0.084543
-0.0929546
-0.0890983
-0.0785782
-0.0896225
-0.0833921
-0.0861119
-0.0929998
-0.0801748
-0.0871707
-0.0925218
-0.0849248
-0.0929392
-0.0925884
-0.0853655
-0.0854983
-0.0940414
-0.0845836
-0.0877988
-0.0826713
-0.0698887
-0.0933716
-0.0908206
-0.0880958
-0.0927619
-0.0883847
-0.089176
-0.0962386
-0.084513
-0.0906031
-0.100103
-0.088926
-0.0862963
-0.0864838
-0.0801236
-0.0867414
-0.0897316
-0.07829
-0.0816879
-0.0889146
-0.0825417
-0.0910036
-0.0857288
-0.0856115
-0.0966043
-0.087303
-0.0852411
-0.0980763
-0.0894104
-0.0827658
-0.0860286
-0.077904
-0.0866414
-0.0904368
-0.076841
-0.081908
-0.0861128
-0.0779908
-0.0820455
-0.0791519
-0.0751303
-0.09305
-0.0862641
-0.0797276
-0.0896246
-0.0884267
-0.0902326
-0.0930883
-0.0821938
-0.0842338
-0.092456
-0.0787066
-0.0758572
-0.0833269
-0.0787319
-0.0800346
-0.0825874
-0.076547
-0.0858905
-0.0922185
-0.0805031
-0.0882369
-0.0909134
-0.0889589
-0.0893272
-0.0846219
-0.0831513
-0.090225
-0.0911789
-0.0871754
-0.0982012
-0.0872
-0.0878911
-0.0884286
-0.0805047
-0.0875834
-0.092123
-0.0796287
-0.0829482
-0.0889085
-0.0816876
-0.0916641
-0.0889338
-0.0832485
-0.0919725
-0.0867283
-0.0816381
-0.0934491
-0.0917043
-0.084141
-0.0887862
-0.0821745
-0.0832632
-0.0889448
-0.0775719
-0.078083
-0.0969225
-0.0895096
-0.0939446
-0.0952626
-0.0889421
-0.100911
-0.0940771
-0.080388
-0.0863576
-0.0889838
-0.082348
-0.0868226
-0.0793868
-0.080163
-0.0907174
-0.0848267
-0.0811817
-0.0931978
-0.0888615
-0.0873883
-0.0910003
-0.0869775
-0.0938974
-0.094681
-0.0817886
-0.0904604
-0.0968761
-0.0860566
-0.0879548
-0.0858877
-0.0795391
-0.090667
-0.0869646
-0.079021
-0.0898455
-0.0864541
-0.0869218
-0.0898562
-0.0813276
-0.0847649
-0.0943056
-0.0884097
-0.0893813
-0.0938903
-0.0872597
-0.0913269
-0.09361
-0.0828099
-0.0872043
-0.086708
-0.0786456
-0.0878508
-0.0872266
-0.0855097
-0.0902904
-0.0835243
-0.0838475
-0.0904822
-0.0819472
-0.0776608
-0.092767
-0.0888958
-0.0860583
-0.0944447
-0.0872231
-0.0972841
-0.0991117
-0.0830214
-0.0869454
-0.0933164
-0.0879985
-0.0881182
-0.0853145
-0.0760027
-0.0871343
-0.0880739
-0.074877
-0.0834149
-0.0780769
-0.0738757
-0.0664991
-0.0601538
-0.0577397
-0.0575395
-0.0454207
-0.0416527
-0.0525312
-0.0459831
-0.0510825
-0.0518307
-0.0559511
-0.0676707
-0.0695121
-0.0676767
-0.0765172
-0.0809428
-0.075945
-0.0853316
-0.0865354
-0.0861055
-0.10152
-0.0939413
-0.0904135
-0.10741
-0.102804
-0.0937019
-0.0965627
-0.0960425
-0.0989445
-0.103116
-0.0843281
-0.0876042
-0.10043
-0.0954144
-0.0990555
-0.0949152
-0.0894403
-0.0962754
-0.0919571
-0.0834072
-0.0946582
-0.0856737
-0.0861037
-0.091616
-0.0849542
-0.0879887
-0.0952473
-0.085006
-0.0840985
-0.0934461
-0.0889808
-0.0924123
-0.0942256
-0.0885667
-0.0985112
-0.0912905
-0.0748824
-0.089058
-0.0884333
-0.0821549
-0.0868472
-0.084121
-0.0851382
-0.0964328
-0.08691
-0.0825411
-0.0933266
-0.0899863
-0.0883203
-0.0914552
-0.0887369
-0.0928796
-0.0921948
-0.0758099
-0.0811379
-0.0876191
-0.0825053
-0.0912676
-0.0823908
-0.0785531
-0.0914913
-0.0924152
-0.0815126
-0.0962764
-0.0948456
-0.087907
-0.092208
-0.0851299
-0.088713
-0.0967302
-0.0842667
-0.0834196
-0.0890362
-0.083454
-0.0849175
-0.0818958
-0.076658
-0.0909272
-0.0921443
-0.0805638
-0.0889743
-0.0926994
-0.0861405
-0.0905383
-0.0856822
-0.0841467
-0.0985209
-0.0870546
-0.0819445
-0.0929194
-0.0883448
-0.0839146
-0.0827235
-0.0780073
-0.0852907
-0.0942495
-0.0796678
-0.0814476
-0.0952838
-0.0880725
-0.0904558
-0.0806425
-0.0788422
-0.0915834
-0.0860497
-0.0816945
-0.0924708
-0.0870938
-0.0810867
-0.0856762
-0.0804822
-0.0830139
-0.0894893
-0.0775041
-0.0783174
-0.0885028
-0.0844039
-0.0830994
-0.0848426
-0.0786261
-0.0936198
-0.0987748
-0.0938222
-0.0971674
-0.0995422
-0.0812031
-0.0894063
-0.0815205
-0.0742323
-0.0846858
-0.0727762
-0.0697252
-0.0802891
-0.0784805
-0.0771861
-0.088169
-0.082055
-0.0817791
-0.0907814
-0.0779032
-0.0864347
-0.0911258
-0.0826172
-0.0867214
-0.0844718
-0.080909
-0.0918528
-0.0811617
-0.0702542
-0.0811428
-0.0839197
-0.0818442
-0.0922222
-0.0832123
-0.0868926
-0.0944262
-0.0795194
-0.0855931
-0.0954472
-0.0887319
-0.0882593
-0.0874675
-0.0753725
-0.0851905
-0.0843834
-0.071759
-0.0816386
-0.0843633
-0.0805441
-0.0853525
-0.0770372
-0.0782964
-0.092229
-0.0792764
-0.0752845
-0.0871372
-0.0833949
-0.0847363
-0.085293
-0.0780816
-0.0847461
-0.0899919
-0.0728176
-0.0773006
-0.0834465
-0.0771409
-0.0835659
-0.08128
-0.0755549
-0.0867012
-0.0810527
-0.0718932
-0.0848938
-0.0854248
-0.0813811
-0.0850472
-0.0764218
-0.0791506
-0.0881423
-0.0759143
-0.0764484
-0.0871709
-0.0736395
-0.0721987
-0.0727718
-0.0707987
-0.0823407
-0.0830715
-0.0782757
-0.0872895
-0.084764
-0.0813651
-0.0902784
-0.0806339
-0.0804406
-0.0915519
-0.0849567
-0.076924
-0.0801653
-0.0753894
-0.0723668
-0.0761971
-0.0655886
-0.0759935
-0.0798826
-0.0695126
-0.0721469
-0.0796475
-0.0753452
-0.0790908
-0.0814687
-0.0828816
-0.09463
-0.0908244
-0.082513
-0.0941254
-0.0881107
-0.0805988
-0.083553
-0.0768123
-0.0780897
-0.0864391
-0.0754903
-0.0829848
-0.0922755
-0.0855283
-0.0820193
-0.0826573
-0.0816062
-0.0916721
-0.0910409
-0.079374
-0.0820218
-0.0835462
-0.0773676
-0.0852858
-0.0770121
-0.0745664
-0.0912564
-0.0815186
-0.0801454
-0.092075
-0.0897657
-0.088279
-0.084183
-0.0769776
-0.0912227
-0.0985551
-0.0865897
-0.0890753
-0.0951306
-0.0848317
-0.0855979
-0.0825395
-0.0755906
-0.0867409
-0.0795784
-0.0697154
-0.0910394
-0.0920789
-0.0880992
-0.0915412
-0.0783855
-0.0867114
-0.0965184
-0.0842492
-0.088004
-0.0955627
-0.0873
-0.0849227
-0.0854256
-0.0813968
-0.0836864
-0.0847932
-0.0761555
-0.0852371
-0.0897114
-0.0827535
-0.0867763
-0.0896736
-0.0895757
-0.098844
-0.0859641
-0.0852503
-0.091268
-0.0864256
-0.0821749
-0.0822523
-0.0739504
-0.0860356
-0.0898111
-0.0756507
-0.0808875
-0.0934973
-0.0852023
-0.0889888
-0.0888944
-0.0852839
-0.0949358
-0.0892165
-0.0810022
-0.0915374
-0.0905315
-0.0839839
-0.0845136
-0.0777431
-0.0846176
-0.091982
-0.0775926
-0.0789078
-0.0880345
-0.0800564
-0.0846108
-0.0851785
-0.0805724
-0.0906854
-0.0908302
-0.0750221
-0.0898372
-0.0978615
-0.0917245
-0.0978518
-0.0924203
-0.0875703
-0.0975166
-0.0876948
-0.0847406
-0.0904461
-0.090571
-0.0818563
-0.0848071
-0.0756089
-0.083534
-0.0901526
-0.0717976
-0.0774853
-0.0846497
-0.0846587
-0.0885655
-0.0849351
-0.0813632
-0.0916165
-0.0863405
-0.0788751
-0.0854213
-0.0836701
-0.0796549
-0.0830721
-0.0777871
-0.0865101
-0.0942318
-0.0803226
-0.0797981
-0.0842925
-0.0818995
-0.0835854
-0.087718
-0.0832347
-0.093971
-0.0886539
-0.0772756
-0.0853242
-0.0860984
-0.0782825
-0.0827142
-0.0776541
-0.077452
-0.0919762
-0.0857127
-0.0829183
-0.0938114
-0.0867037
-0.086725
-0.0867491
-0.0875549
-0.0951199
-0.0992815
-0.0770322
-0.0806708
-0.0865896
-0.079403
-0.0836299
-0.0819636
-0.0811304
-0.093785
-0.0878525
-0.0822362
-0.0903932
-0.0884968
-0.081914
-0.0864187
-0.0816194
-0.083491
-0.0904697
-0.0826411
-0.0838768
-0.0926389
-0.0817311
-0.0834486
-0.082646
-0.0765859
-0.0874452
-0.0874663
-0.0770182
-0.0869999
-0.0890242
-0.0837296
-0.0897654
-0.0825769
-0.0855229
-0.0958247
-0.0897199
-0.0838853
-0.0835658
-0.0834257
-0.0823831
-0.0908804
-0.0778905
-0.0828952
-0.0884998
-0.0756566
-0.0830459
-0.0833191
-0.0761371
-0.085184
-0.0826819
-0.0762878
-0.0859432
-0.0824544
-0.0788875
-0.089855
-0.0890136
-0.0872635
-0.0919554
-0.0839421
-0.0879622
-0.0921978
-0.0755501
-0.0824462
-0.0910756
-0.0842534
-0.0833024
-0.0834646
-0.0791279
-0.0866101
-0.0853694
-0.0753517
-0.0886664
-0.0921408
-0.0775678
-0.0824076
-0.0763908
-0.078085
-0.0853642
-0.0747183
-0.0711437
-0.0846114
-0.0833392
-0.0853328
-0.085503
-0.0783178
-0.0880621
-0.0943096
-0.0811728
-0.0855128
-0.0913402
-0.0882632
-0.0929299
-0.0855921
-0.0761372
-0.0872933
-0.0804484
-0.0718311
-0.0825089
-0.0835227
-0.0797053
-0.0833843
-0.0774572
-0.0837258
-0.0912182
-0.0788517
-0.0799081
-0.0934048
-0.0851685
-0.0853489
-0.0856759
-0.0822629
-0.0919677
-0.0893653
-0.0785785
-0.0878259
-0.0836505
-0.0677993
-0.0817429
-0.0735981
-0.0737405
-0.0863968
-0.0771102
-0.0710957
-0.0865503
-0.0815462
-0.082576
-0.0866193
-0.0760388
-0.0837227
-0.087213
-0.075883
-0.0819735
-0.0842552
-0.0736834
-0.0775698
-0.0758964
-0.0754809
-0.0911374
-0.0837367
-0.0757692
-0.085257
-0.0874261
-0.0830416
-0.0886076
-0.081767
-0.0809842
-0.0884331
-0.0742482
-0.0734649
-0.0824286
-0.0775785
-0.0762903
-0.0761821
-0.0751931
-0.0854203
-0.0830562
-0.0738006
-0.0812805
-0.0805553
-0.0745261
-0.0830734
-0.0819007
-0.0814916
-0.0880248
-0.0779978
-0.0715435
-0.0825847
-0.081549
-0.070915
-0.0737312
-0.066156
-0.0745793
-0.0826122
-0.0701894
-0.0761303
-0.0866662
-0.0803999
-0.0838059
-0.0772969
-0.0739211
-0.0909778
-0.0870213
-0.0788039
-0.0916015
-0.0896262
-0.0836747
-0.0860274
-0.0737737
-0.0781393
-0.0856446
-0.0793417
-0.0785187
-0.0889494
-0.0860857
-0.0879288
-0.0861854
-0.0768206
-0.0907701
-0.0854443
-0.0742202
-0.0816324
-0.0847576
-0.0781506
-0.0830014
-0.0778011
-0.0796405
-0.0908504
-0.0821832
-0.0784892
-0.0894169
-0.0843499
-0.0828521
-0.0835411
-0.0717713
-0.0795339
-0.0858095
-0.0788943
-0.0834854
-0.0940755
-0.0927149
-0.0966404
-0.093396
-0.08836
-0.0900166
-0.0772047
-0.0693376
-0.0806447
-0.076525
-0.0742068
-0.0829461
-0.0760794
-0.0797936
-0.0864551
-0.0776346
-0.0853718
-0.0942692
-0.0845923
-0.0820667
-0.081788
-0.0771478
-0.0874194
-0.086132
-0.0675397
-0.080584
-0.0847595
-0.0787751
-0.0816292
-0.0765014
-0.0777894
-0.0896758
-0.0795687
-0.0758352
-0.0909492
-0.086751
-0.0832896
-0.0860512
-0.0787872
-0.087589
-0.0906072
-0.0754999
-0.0815411
-0.0871853
-0.0811307
-0.0850756
-0.0832959
-0.0799999
-0.0934563
-0.085889
-0.0731724
-0.0817888
-0.079725
-0.0806401
-0.080966
-0.0705866
-0.0748492
-0.0822668
-0.068629
-0.0637264
-0.0646905
-0.0576006
-0.0595062
-0.0596923
-0.0529769
-0.0600703
-0.0552215
-0.0440613
-0.0453375
-0.0480634
-0.0508017
-0.0617591
-0.056504
-0.0556408
-0.0649033
-0.0610566
-0.0625837
-0.0733837
-0.0703547
-0.0742296
-0.0839639
-0.0845059
-0.0923467
-0.102508
-0.0923085
-0.0979997
-0.102398
-0.0952497
-0.103614
-0.105299
-0.0956432
-0.102599
-0.0962765
-0.0776108
-0.0871363
-0.0900285
-0.071977
-0.0763893
-0.0640974
-0.0722086
-0.083982
-0.0776273
-0.0792849
-0.0926155
-0.0810129
-0.0810497
-0.0840006
-0.0781103
-0.0907253
-0.0879151
-0.0747874
-0.0820953
-0.0837717
-0.0776329
-0.0808933
-0.0735111
-0.0754967
-0.0856353
-0.0782494
-0.078237
-0.0905229
-0.0861633
-0.0853746
-0.0881814
-0.0883298
-0.0975095
-0.100213
-0.0874225
-0.0908635
-0.0942157
-0.0731742
-0.0681573
-0.0654072
-0.0629921
-0.0810471
-0.0758697
-0.073055
-0.0840893
-0.0818377
-0.0791199
-0.0820183
-0.0769143
-0.081274
-0.0871031
-0.0786318
-0.0778497
-0.0832466
-0.0763316
-0.0800995
-0.0836152
-0.0741502
-0.0842867
-0.0826151
-0.0743202
-0.0859596
-0.0867865
-0.0798709
-0.0847341
-0.0816251
-0.0792597
-0.089074
-0.0818491
-0.0786976
-0.086969
-0.0780791
-0.0758268
-0.0782061
-0.0710611
-0.0786797
-0.0818254
-0.0741441
-0.0819349
-0.087441
-0.0840063
-0.0946085
-0.0872234
-0.0759489
-0.0871029
-0.0860708
-0.0881073
-0.0813502
-0.077955
-0.0743709
-0.0792554
-0.0705395
-0.0752477
-0.0804323
-0.0679448
-0.0695229
-0.081986
-0.0747589
-0.0764578
-0.0765383
-0.070099
-0.0839568
-0.0794238
-0.0689621
-0.0784327
-0.0841103
-0.078618
-0.079784
-0.0743484
-0.074832
-0.0870219
-0.0795583
-0.0771676
-0.0894245
-0.0842045
-0.0828886
-0.0822402
-0.0692022
-0.0734595
-0.0765476
-0.0649757
-0.078516
-0.0884761
-0.0794486
-0.0834696
-0.0790496
-0.073016
-0.0818688
-0.075682
-0.06807
-0.0767213
-0.0724826
-0.0693325
-0.0754029
-0.0730754
-0.077532
-0.0865721
-0.0728687
-0.074807
-0.0835361
-0.0765972
-0.0830271
-0.0801724
-0.075759
-0.0897378
-0.0879437
-0.0776154
-0.084417
-0.0759453
-0.0715767
-0.0764452
-0.0756831
-0.0771159
-0.0754811
-0.0708791
-0.0678495
-0.0797915
-0.0670416
-0.0686623
-0.0745862
-0.0674554
-0.0777513
-0.0808817
-0.0686196
-0.0729094
-0.0783233
-0.0699033
-0.0751429
-0.0742882
-0.0709956
-0.0821469
-0.0743059
-0.0671456
-0.0797049
-0.076323
-0.0728069
-0.0793631
-0.0741243
-0.0815293
-0.0865246
-0.0740058
-0.0729042
-0.0800991
-0.0720488
-0.0673096
-0.0673197
-0.0606325
-0.0726321
-0.0716768
-0.0604823
-0.0700148
-0.0741939
-0.0679491
-0.07362
-0.0697317
-0.0703137
-0.084354
-0.0737139
-0.0658454
-0.0761723
-0.070893
-0.0698501
-0.0711462
-0.062023
-0.0725573
-0.0755299
-0.064178
-0.0733171
-0.0822848
-0.0765726
-0.0806308
-0.0783414
-0.0768901
-0.0876397
-0.0776445
-0.0701361
-0.0733033
-0.0678783
-0.0648963
-0.0700382
-0.0630883
-0.0653418
-0.0758922
-0.0655582
-0.0685168
-0.0771775
-0.0740159
-0.0756076
-0.0772825
-0.0739217
-0.0843419
-0.0837256
-0.0754652
-0.0785283
-0.0758582
-0.0700375
-0.0764106
-0.0712963
-0.0732277
-0.0859428
-0.075565
-0.0756577
-0.0915693
-0.0875606
-0.0824544
-0.0850225
-0.0709072
-0.0701798
-0.0682947
-0.0678533
-0.0742415
-0.080363
-0.0727588
-0.0816355
-0.0756114
-0.0726017
-0.0862493
-0.0832001
-0.0696439
-0.0818187
-0.0794509
-0.0758032
-0.0801305
-0.0727698
-0.0781717
-0.085277
-0.0725283
-0.074647
-0.0894732
-0.0853008
-0.0874232
-0.089763
-0.0881289
-0.10157
-0.0926922
-0.0817662
-0.0799597
-0.0722406
-0.0682441
-0.0788193
-0.0733791
-0.07146
-0.0784498
-0.0697345
-0.0725885
-0.0832846
-0.0783469
-0.0757772
-0.0822174
-0.0729102
-0.081021
-0.084878
-0.0728475
-0.0733848
-0.07616
-0.0690641
-0.0788591
-0.0761006
-0.0780325
-0.0898779
-0.083175
-0.0757712
-0.0840533
-0.0838428
-0.0843295
-0.0886422
-0.081171
-0.0826212
-0.0880813
-0.0757182
-0.077797
-0.0818886
-0.0681056
-0.0687587
-0.0761633
-0.0704562
-0.0845171
-0.0858788
-0.0715875
-0.0775113
-0.0788431
-0.0765712
-0.0842483
-0.0824824
-0.0802129
-0.090177
-0.0765246
-0.07374
-0.0839204
-0.0729539
-0.0724208
-0.074533
-0.0672342
-0.079583
-0.0837821
-0.0710629
-0.0767491
-0.083578
-0.0753907
-0.0813038
-0.0783109
-0.0801848
-0.0914277
-0.0838712
-0.0769201
-0.0880093
-0.0864562
-0.0832775
-0.0881754
-0.0788939
-0.0835925
-0.0861072
-0.07043
-0.0715688
-0.0803258
-0.0733324
-0.0697162
-0.0800857
-0.0768058
-0.0867867
-0.0846876
-0.0725313
-0.081385
-0.0793679
-0.0730207
-0.0778996
-0.0711083
-0.0726883
-0.0832267
-0.0713374
-0.0686144
-0.0791788
-0.0770838
-0.0778873
-0.0788713
-0.0717812
-0.080568
-0.0863092
-0.0738016
-0.0824365
-0.087619
-0.0839406
-0.0888717
-0.0861446
-0.0796605
-0.0908007
-0.0766909
-0.0629926
-0.0657887
-0.0671932
-0.0638492
-0.0766321
-0.0706406
-0.0780876
-0.0861568
-0.0735659
-0.0801647
-0.0871868
-0.0752834
-0.0787978
-0.0786321
-0.0754797
-0.0803804
-0.0757205
-0.0688996
-0.078583
-0.0816171
-0.0756948
-0.0798752
-0.0761587
-0.0769885
-0.0858008
-0.077075
-0.0824135
-0.0926618
-0.0872385
-0.0814786
-0.0761344
-0.0666533
-0.0749779
-0.0776611
-0.0649655
-0.073449
-0.0783851
-0.0709158
-0.0750648
-0.0770036
-0.0766618
-0.085599
-0.078736
-0.0714907
-0.0832935
-0.0861558
-0.0785466
-0.0788145
-0.0718132
-0.0775086
-0.0854319
-0.0681278
-0.0688866
-0.0773737
-0.0724605
-0.0785053
-0.0813045
-0.0750799
-0.0856001
-0.0805796
-0.0630943
-0.0760073
-0.0819925
-0.0762954
-0.0819772
-0.0742357
-0.0751153
-0.0827013
-0.0721392
-0.0713395
-0.0803714
-0.07452
-0.0766968
-0.0791243
-0.0717525
-0.0827147
-0.0851399
-0.0700566
-0.0766886
-0.0824782
-0.0733183
-0.079085
-0.0748898
-0.0720905
-0.0827244
-0.0759085
-0.0706165
-0.0793256
-0.076746
-0.0738716
-0.0802243
-0.0823136
-0.0887572
-0.0956347
-0.0794175
-0.0805363
-0.0816882
-0.0735655
-0.0758408
-0.0815048
-0.0707083
-0.0747478
-0.0747667
-0.0640174
-0.0744596
-0.0734962
-0.0673244
-0.0681075
-0.0625411
-0.0679706
-0.0805301
-0.0738321
-0.0726941
-0.0833094
-0.0748302
-0.0755437
-0.0792428
-0.0760806
-0.0831803
-0.0857473
-0.0729768
-0.077357
-0.0835002
-0.0731499
-0.0773343
-0.0722051
-0.0701484
-0.0795789
-0.0721103
-0.0649717
-0.0757869
-0.0789655
-0.0715261
-0.0732634
-0.0662435
-0.0769353
-0.0827668
-0.069537
-0.0717156
-0.0801323
-0.0744004
-0.075206
-0.0725349
-0.0675666
-0.0781253
-0.0758836
-0.0663706
-0.0775419
-0.0817298
-0.0760836
-0.0819677
-0.0769767
-0.0709562
-0.085889
-0.0752552
-0.0711791
-0.0755776
-0.0695709
-0.0684211
-0.0707917
-0.0628393
-0.0690764
-0.0718853
-0.0636278
-0.0703561
-0.0810528
-0.0763124
-0.0795142
-0.0701513
-0.0674374
-0.0786641
-0.072943
-0.0647581
-0.0741791
-0.071516
-0.0666118
-0.0699336
-0.0663047
-0.0738448
-0.08063
-0.064388
-0.0634264
-0.0748076
-0.0726668
-0.0750027
-0.0820964
-0.0715567
-0.0790343
-0.0784321
-0.0677557
-0.0796558
-0.0815951
-0.0746746
-0.0801597
-0.0745442
-0.0737738
-0.0816796
-0.0678105
-0.0640963
-0.0746777
-0.0715438
-0.0736306
-0.0781727
-0.0764304
-0.0848047
-0.0882554
-0.0775112
-0.0842876
-0.0872376
-0.0802075
-0.0789265
-0.0767299
-0.070759
-0.0818818
-0.0748082
-0.0631772
-0.0737039
-0.0700993
-0.0706303
-0.0748364
-0.0682989
-0.0732871
-0.0811259
-0.069972
-0.0724702
-0.0838158
-0.0813664
-0.0793324
-0.074591
-0.06908
-0.0838763
-0.0812138
-0.0632742
-0.0765029
-0.0774937
-0.0781992
-0.0780849
-0.0768452
-0.0815249
-0.0913035
-0.0784993
-0.0706471
-0.0792112
-0.0754503
-0.0751738
-0.0769872
-0.0706553
-0.0773667
-0.0814591
-0.0688287
-0.0751529
-0.0764563
-0.0703366
-0.0752728
-0.0720425
-0.0708148
-0.0854333
-0.0800076
-0.0735307
-0.0846627
-0.0790168
-0.0746832
-0.0823734
-0.0773274
-0.0823637
-0.0870561
-0.0721906
-0.0726485
-0.0794583
-0.0724006
-0.0724966
-0.0733201
-0.0684382
-0.0795529
-0.07703
-0.0687276
-0.0783846
-0.072227
-0.0736586
-0.0785449
-0.0825812
-0.083411
-0.0907621
-0.0758232
-0.0735331
-0.0828797
-0.0707919
-0.0657522
-0.0652368
-0.0582156
-0.0706638
-0.0713979
-0.0519817
-0.0538534
-0.0587102
-0.0522012
-0.0540543
-0.0461906
-0.0384062
-0.0495202
-0.0401426
-0.0313199
-0.043657
-0.0466699
-0.0435718
-0.0546459
-0.0484918
-0.0535762
-0.0679218
-0.0552451
-0.0669627
-0.0814365
-0.0770707
-0.0834967
-0.0830851
-0.0791324
-0.0984653
-0.0988822
-0.0846173
-0.0945024
-0.0928964
-0.0842544
-0.090441
-0.0797534
-0.0809335
-0.0897569
-0.0791835
-0.0746555
-0.0822843
-0.0766701
-0.080667
-0.0855228
-0.0734125
-0.0820975
-0.0843732
-0.0763714
-0.0828906
-0.0839006
-0.0740025
-0.0782725
-0.0753754
-0.0721345
-0.0837437
-0.0750143
-0.0681461
-0.072888
-0.07776
-0.0761973
-0.0812554
-0.0741933
-0.0725257
-0.0792244
-0.0772368
-0.085414
-0.0936518
-0.0816782
-0.079734
-0.0768873
-0.0657641
-0.0764149
-0.0738717
-0.0663444
-0.0709574
-0.0738032
-0.0682876
-0.0788744
-0.0743632
-0.0738935
-0.083389
-0.0725814
-0.0703156
-0.0887264
-0.0859859
-0.0844195
-0.0863463
-0.0793473
-0.0856688
-0.0824861
-0.063999
-0.0709655
-0.0729287
-0.0568419
-0.0558285
-0.071898
-0.0720008
-0.083105
-0.0770241
-0.0650104
-0.0788568
-0.0811881
-0.0781611
-0.0813027
-0.0697331
-0.0747133
-0.084565
-0.0718669
-0.0775036
-0.0791051
-0.069624
-0.0750096
-0.0745277
-0.0689342
-0.0795028
-0.0789994
-0.0695102
-0.0794508
-0.0833483
-0.0860594
-0.0890462
-0.0784115
-0.0796922
-0.0853595
-0.071918
-0.0683145
-0.075907
-0.0702404
-0.0632107
-0.0673084
-0.0638209
-0.0774788
-0.0796376
-0.0666656
-0.0732792
-0.0793956
-0.0744202
-0.0787233
-0.0779596
-0.0739062
-0.0809051
-0.0741728
-0.0674139
-0.0777646
-0.0720552
-0.0676639
-0.0722891
-0.065212
-0.0751401
-0.0845446
-0.0740363
-0.0785324
-0.0866975
-0.0763091
-0.0781243
-0.0810073
-0.0765438
-0.0872299
-0.0773665
-0.0639155
-0.0750835
-0.0776328
-0.0721708
-0.0692573
-0.0660994
-0.0698305
-0.0777693
-0.0668942
-0.0630529
-0.077227
-0.0729346
-0.0712415
-0.0734101
-0.0684343
-0.0790285
-0.0799287
-0.0651722
-0.0722327
-0.0754022
-0.0680384
-0.0728578
-0.066761
-0.0643516
-0.0763449
-0.0769614
-0.0735575
-0.0809122
-0.0779623
-0.0750068
-0.0690153
-0.060231
-0.0683069
-0.074764
-0.0683458
-0.0709013
-0.0735298
-0.0668344
-0.0693792
-0.070327
-0.0614937
-0.071697
-0.0720736
-0.0616612
-0.0741563
-0.0756574
-0.0694225
-0.0748086
-0.0690275
-0.0681091
-0.0804193
-0.0758108
-0.0736319
-0.0840873
-0.0730693
-0.0710127
-0.0708521
-0.0608883
-0.0695185
-0.0684601
-0.0512193
-0.0617265
-0.0733491
-0.0663973
-0.0693327
-0.069903
-0.0666377
-0.0790251
-0.0715905
-0.0684418
-0.0794002
-0.07381
-0.0676904
-0.0717821
-0.0672909
-0.0753145
-0.075724
-0.0642962
-0.067211
-0.0739028
-0.0636006
-0.0675748
-0.0684875
-0.0631846
-0.0735048
-0.0640215
-0.065348
-0.0811698
-0.0818229
-0.0741152
-0.0726007
-0.0610967
-0.0648288
-0.07441
-0.0632684
-0.0576519
-0.0709883
-0.071245
-0.071225
-0.074235
-0.0656835
-0.0733495
-0.0777324
-0.0652078
-0.0778615
-0.081637
-0.0748973
-0.0766488
-0.0731861
-0.067665
-0.0787463
-0.0742609
-0.0587675
-0.0699293
-0.064299
-0.0642153
-0.07239
-0.0636921
-0.0690633
-0.076225
-0.0695881
-0.0685621
-0.0792169
-0.0721082
-0.0808117
-0.0805892
-0.074317
-0.0878539
-0.0849107
-0.0723763
-0.0818247
-0.0828298
-0.0740495
-0.0789341
-0.0714074
-0.07349
-0.087542
-0.0770676
-0.0752135
-0.0856307
-0.0758622
-0.0757788
-0.0769594
-0.0700203
-0.078022
-0.0844462
-0.0733379
-0.076038
-0.0805664
-0.0689391
-0.0710063
-0.0680108
-0.0697341
-0.0808089
-0.0791729
-0.073735
-0.0817999
-0.0752296
-0.0723819
-0.0798394
-0.081135
-0.0869538
-0.0889676
-0.0762218
-0.0793548
-0.0908726
-0.0823577
-0.0758903
-0.0752326
-0.0613912
-0.0821446
-0.0781416
-0.0705465
-0.0806212
-0.0789784
-0.0684256
-0.0759092
-0.0677599
-0.069293
-0.0831156
-0.0783087
-0.0736171
-0.0856148
-0.0798214
-0.0806745
-0.0812254
-0.0736992
-0.0792364
-0.0811016
-0.0653101
-0.0746563
-0.0810376
-0.0772229
-0.0816056
-0.0773773
-0.0812452
-0.0941133
-0.0823268
-0.0758445
-0.0813123
-0.0720022
-0.0684905
-0.0756306
-0.06852
-0.0754863
-0.080352
-0.0721975
-0.0752896
-0.0832701
-0.0796491
-0.0778108
-0.0741179
-0.0726076
-0.0833771
-0.0813144
-0.0736589
-0.0780596
-0.0796689
-0.0743438
-0.0814261
-0.0758545
-0.0767382
-0.085831
-0.0747919
-0.0692627
-0.0805407
-0.0768226
-0.0784122
-0.0804334
-0.0775202
-0.0850926
-0.090899
-0.0839245
-0.0912166
-0.0884507
-0.0642488
-0.0701469
-0.0728859
-0.0706985
-0.0781595
-0.0673228
-0.0667962
-0.0844665
-0.0813167
-0.0775412
-0.0810638
-0.0746472
-0.0763608
-0.0825781
-0.0671155
-0.0760664
-0.0875095
-0.0781828
-0.0808733
-0.0768452
-0.0701661
-0.0829516
-0.0774292
-0.0672135
-0.07494
-0.0752014
-0.0714041
-0.078585
-0.0726912
-0.0774254
-0.0903882
-0.0777171
-0.0772505
-0.0876085
-0.0882659
-0.0902919
-0.0880833
-0.0714833
-0.0802908
-0.0757382
-0.0630811
-0.0665188
-0.0733057
-0.0664168
-0.07493
-0.0727365
-0.0711939
-0.0789475
-0.0712607
-0.06329
-0.0776626
-0.0750733
-0.075834
-0.0798388
-0.0781164
-0.0853773
-0.0876461
-0.0720755
-0.0752852
-0.0860907
-0.0760584
-0.0767778
-0.0774144
-0.0722668
-0.0819679
-0.0798858
-0.0719102
-0.0820621
-0.0824757
-0.0789065
-0.0869857
-0.0819698
-0.0834546
-0.0903872
-0.0792844
-0.0706802
-0.075818
-0.0621512
-0.0615135
-0.063475
-0.0644885
-0.0783308
-0.0828192
-0.0733797
-0.0807629
-0.0897024
-0.0730268
-0.079355
-0.081029
-0.0789312
-0.0882772
-0.0764405
-0.0724258
-0.0811004
-0.0778717
-0.0737686
-0.0725555
-0.0658275
-0.0725355
-0.0786557
-0.0678775
-0.0725458
-0.0826135
-0.0751759
-0.0779239
-0.0761252
-0.0767093
-0.0905257
-0.0859841
-0.0758488
-0.0847259
-0.0829917
-0.0787506
-0.0791279
-0.0731901
-0.0763255
-0.0803275
-0.0676933
-0.0711517
-0.0814689
-0.0760781
-0.0741767
-0.0784082
-0.0745353
-0.0834124
-0.0853415
-0.06902
-0.0729484
-0.0786405
-0.0717784
-0.0789213
-0.0745629
-0.0658101
-0.0809482
-0.0731617
-0.0706032
-0.0788794
-0.0790115
-0.0789447
-0.0829134
-0.0778802
-0.0828352
-0.0942065
-0.0850209
-0.0883478
-0.0933775
-0.0780349
-0.0806112
-0.0700773
-0.0649932
-0.0711247
-0.0690235
-0.0642288
-0.0767307
-0.0770489
-0.072736
-0.0784112
-0.0753517
-0.0737377
-0.0831089
-0.0761435
-0.0766644
-0.0893609
-0.0824462
-0.0826811
-0.0814824
-0.0715234
-0.0788349
-0.0793048
-0.0669015
-0.074475
-0.0808196
-0.0774711
-0.0833285
-0.0796378
-0.0787301
-0.08206
-0.0725239
-0.0693217
-0.0804993
-0.0789922
-0.0757617
-0.0769121
-0.0683738
-0.0740757
-0.0809979
-0.0691053
-0.0688906
-0.0753822
-0.0682347
-0.0724393
-0.0760701
-0.073118
-0.0834643
-0.0801036
-0.0647497
-0.0766762
-0.0785467
-0.0721622
-0.077035
-0.070154
-0.0724906
-0.0836307
-0.0695344
-0.0681178
-0.0758932
-0.0706549
-0.0751259
-0.0791969
-0.0723521
-0.0802978
-0.0791084
-0.0663237
-0.0744419
-0.0786389
-0.0712043
-0.0792761
-0.072553
-0.0681906
-0.0792119
-0.0722264
-0.0720806
-0.0702592
-0.0650132
-0.062419
-0.0698509
-0.0673077
-0.0756564
-0.0835293
-0.07073
-0.0753735
-0.0813268
-0.0757747
-0.0842075
-0.0833028
-0.079383
-0.0875437
-0.0816236
-0.0727107
-0.0829615
-0.0832843
-0.0782284
-0.0817986
-0.0762962
-0.0781834
-0.0867921
-0.0765651
-0.070711
-0.0797651
-0.0738034
-0.0758105
-0.0787511
-0.0761207
-0.0872003
-0.0886516
-0.0734856
-0.0795484
-0.0854978
-0.0760772
-0.0805631
-0.0769078
-0.0745907
-0.0866031
-0.0809683
-0.0748791
-0.0861584
-0.0832736
-0.0777158
-0.083729
-0.076581
-0.0875764
-0.0956998
-0.0798941
-0.0818958
-0.0896105
-0.078054
-0.0727147
-0.0665747
-0.0641873
-0.0750622
-0.0723827
-0.068211
-0.0791858
-0.082161
-0.0770337
-0.0817011
-0.0740774
-0.0803152
-0.0918923
-0.0806349
-0.0775432
-0.0856757
-0.0766908
-0.077334
-0.079144
-0.0689281
-0.0780415
-0.0802333
-0.0754864
-0.0830935
-0.0897952
-0.0860888
-0.0927886
-0.0861012
-0.0842295
-0.0949327
-0.0854488
-0.0710163
-0.076996
-0.0735725
-0.065851
-0.0763453
-0.0707928
-0.0734348
-0.0793085
-0.0716966
-0.0769563
-0.0831322
-0.0812716
-0.0841602
-0.0856847
-0.0743298
-0.0800186
-0.0806798
-0.0707496
-0.079348
-0.0792756
-0.074577
-0.0800414
-0.0739966
-0.076485
-0.0822301
-0.0636425
-0.0568134
-0.067024
-0.061816
-0.0545951
-0.0452744
-0.0335734
-0.0426203
-0.0432525
-0.032125
-0.0447761
-0.05723
-0.050438
-0.0605515
-0.054332
-0.0518058
-0.0690995
-0.0610667
-0.0619909
-0.0793707
-0.0802086
-0.0831236
-0.0869987
-0.088842
-0.0991303
-0.105554
-0.0900364
-0.0936539
-0.102891
-0.0952263
-0.0927425
-0.0889316
-0.0840095
-0.0920118
-0.0876137
-0.0722251
-0.0814469
-0.081527
-0.0751573
-0.0835184
-0.0772526
-0.0803915
-0.0896044
-0.0788869
-0.0760202
-0.0888087
-0.0847779
-0.0851928
-0.0868413
-0.0781553
-0.0845355
-0.085408
-0.0731002
-0.081895
-0.081401
-0.0747236
-0.0849505
-0.081099
-0.0810184
-0.0914023
-0.0812207
-0.0784018
-0.0895813
-0.0872808
-0.0877322
-0.089288
-0.0824272
-0.0883617
-0.0910354
-0.0770122
-0.0784874
-0.0831853
-0.0760169
-0.0791606
-0.0776142
-0.0806249
-0.0922405
-0.0885831
-0.0772364
-0.0861812
-0.0780138
-0.0738731
-0.0787306
-0.0789441
-0.0817335
-0.0868138
-0.0746667
-0.0735624
-0.0846284
-0.079475
-0.0779257
-0.0773432
-0.0705724
-0.0809856
-0.0865984
-0.0727105
-0.0835489
-0.0875069
-0.0843443
-0.0855843
-0.0834009
-0.082566
-0.0935397
-0.0858094
-0.0761475
-0.0844264
-0.0789876
-0.0765755
-0.0767117
-0.065747
-0.0751277
-0.084051
-0.0712225
-0.0740552
-0.0833138
-0.0797419
-0.0816128
-0.0805309
-0.0754747
-0.0890033
-0.0869866
-0.075182
-0.0855495
-0.0853346
-0.0797229
-0.0822767
-0.0751695
-0.0773094
-0.0849569
-0.0762803
-0.0727384
-0.0878817
-0.0820058
-0.0824922
-0.0865786
-0.0781232
-0.0907692
-0.0919221
-0.0809544
-0.0827361
-0.079746
-0.0749984
-0.0817514
-0.077836
-0.0787468
-0.0838101
-0.0770313
-0.0741264
-0.0853045
-0.0814275
-0.0763518
-0.0832682
-0.0748998
-0.0809265
-0.0882993
-0.0751658
-0.0791559
-0.081275
-0.0740997
-0.0781977
-0.0780802
-0.0737572
-0.0831984
-0.0794225
-0.0731602
-0.0831501
-0.0866877
-0.0831052
-0.087955
-0.0778273
-0.0804176
-0.086532
-0.0782262
-0.0772466
-0.087967
-0.0835688
-0.0799907
-0.0766459
-0.0699061
-0.0772846
-0.0776776
-0.0639303
-0.076755
-0.0806168
-0.0759842
-0.08165
-0.0765028
-0.0753594
-0.0863118
-0.0797847
-0.074337
-0.0858138
-0.0864988
-0.0841595
-0.0875559
-0.075584
-0.0810565
-0.0836786
-0.0708404
-0.0695877
-0.076667
-0.0663886
-0.0747135
-0.0735603
-0.0711707
-0.0806243
-0.0802892
-0.0699693
-0.0803812
-0.0854715
-0.0811183
-0.0845637
-0.0761156
-0.0783564
-0.0876373
-0.0677026
-0.0673854
-0.0749824
-0.0688621
-0.0720195
-0.0769432
-0.0716193
-0.08083
-0.081863
-0.0694365
-0.0797039
-0.0806174
-0.0758001
-0.0803783
-0.0824993
-0.0769019
-0.0847431
-0.0758679
-0.0701773
-0.0785526
-0.0707996
-0.0654967
-0.066573
-0.0593978
-0.0718159
-0.081787
-0.0745444
-0.0768487
-0.0842881
-0.0759068
-0.0831584
-0.0833695
-0.0784134
-0.0893789
-0.0854847
-0.0725075
-0.0787412
-0.076184
-0.0712601
-0.0732011
-0.0688328
-0.0742238
-0.0848711
-0.0734076
-0.0747526
-0.0863261
-0.0808839
-0.0818766
-0.0834688
-0.0782609
-0.0847036
-0.0844764
-0.0717709
-0.0796808
-0.0834459
-0.0771441
-0.0809345
-0.0767238
-0.0751723
-0.086902
-0.0802788
-0.0789455
-0.0934189
-0.0897281
-0.0853616
-0.0856174
-0.0764391
-0.0861027
-0.0916226
-0.0814759
-0.0838371
-0.0901363
-0.0797522
-0.0828304
-0.0815057
-0.0707833
-0.0818605
-0.0849072
-0.0752728
-0.0901279
-0.0899233
-0.0830289
-0.088765
-0.0825766
-0.084218
-0.0908312
-0.0826393
-0.0807465
-0.090796
-0.0841322
-0.0870601
-0.0927206
-0.0850289
-0.0943034
-0.0929159
-0.0794316
-0.0882837
-0.0933004
-0.0866142
-0.0922166
-0.0873742
-0.0831687
-0.0930865
-0.0847154
-0.0800396
-0.0940107
-0.0842822
-0.0817521
-0.0854873
-0.081106
-0.0877149
-0.0860835
-0.0754328
-0.0794507
-0.0855096
-0.0804229
-0.0816274
-0.0827669
-0.0780784
-0.0941669
-0.0876545
-0.0789631
-0.0929392
-0.0926873
-0.0892224
-0.0890535
-0.0819451
-0.0771367
-0.0861156
-0.0810955
-0.0878648
-0.0941902
-0.0820048
-0.0826678
-0.0820965
-0.0790212
-0.0917271
-0.0919793
-0.0798165
-0.0896105
-0.0936787
-0.0908082
-0.0944223
-0.0903483
-0.0822888
-0.0931945
-0.0803756
-0.0717572
-0.0829258
-0.0826597
-0.082566
-0.0827803
-0.0776963
-0.0839503
-0.0907673
-0.081213
-0.0826873
-0.0855057
-0.0783167
-0.0877472
-0.087151
-0.0853964
-0.0967959
-0.0927244
-0.0806762
-0.0902731
-0.0859738
-0.0805386
-0.0853643
-0.0821361
-0.0834779
-0.0914222
-0.084974
-0.0843055
-0.0961063
-0.0861995
-0.0877976
-0.0914943
-0.0848355
-0.0912727
-0.0877644
-0.0785233
-0.0884589
-0.0920785
-0.083524
-0.0837495
-0.0789439
-0.0818306
-0.0927237
-0.0888572
-0.0822964
-0.094262
-0.0886584
-0.0865011
-0.0888943
-0.0841078
-0.0899067
-0.0927718
-0.0799142
-0.0790448
-0.0935225
-0.0883313
-0.0844877
-0.0831555
-0.0762351
-0.0905452
-0.0846147
-0.0799099
-0.0904272
-0.0902805
-0.081175
-0.0928951
-0.0914473
-0.0939392
-0.104848
-0.0882725
-0.080666
-0.0902422
-0.0840141
-0.0847471
-0.0823116
-0.0793696
-0.0881377
-0.0888689
-0.0785498
-0.0869267
-0.0929975
-0.0908591
-0.0954958
-0.0900587
-0.0851915
-0.0911717
-0.0828579
-0.0774546
-0.0893169
-0.085476
-0.0788551
-0.0826269
-0.075438
-0.0827817
-0.0884948
-0.076534
-0.0832208
-0.0904575
-0.0857643
-0.0903464
-0.0912783
-0.080092
-0.0911125
-0.092323
-0.0860618
-0.0912991
-0.0902051
-0.0854294
-0.0926436
-0.0864762
-0.0842182
-0.0910922
-0.0794887
-0.0778442
-0.0913952
-0.0868462
-0.0893139
-0.0907462
-0.0875211
-0.0930198
-0.0929903
-0.0839934
-0.0921114
-0.0943334
-0.0887112
-0.0904589
-0.0832903
-0.0819693
-0.0914362
-0.0812751
-0.0754295
-0.0901882
-0.08631
-0.0867254
-0.0927757
-0.0836845
-0.0894729
-0.0947337
-0.0852701
-0.0922128
-0.101808
-0.0937133
-0.0969209
-0.0934168
-0.0881649
-0.0966954
-0.0819469
-0.0725294
-0.0810864
-0.0838451
-0.0823992
-0.0862073
-0.0799205
-0.0832125
-0.092651
-0.0757201
-0.0754375
-0.0853632
-0.0838933
-0.0884956
-0.0917954
-0.0823874
-0.0918165
-0.0974263
-0.0866519
-0.0925106
-0.0927837
-0.0861778
-0.0910361
-0.0893361
-0.0890614
-0.0996147
-0.0910065
-0.0842185
-0.0937733
-0.091958
-0.0904097
-0.0940382
-0.085345
-0.0873778
-0.094586
-0.0836199
-0.0879183
-0.0902725
-0.0831758
-0.0874086
-0.0880685
-0.0835511
-0.0937912
-0.0896838
-0.0805102
-0.0912865
-0.090798
-0.087582
-0.0961837
-0.0918776
-0.0913195
-0.0963221
-0.0846641
-0.0820433
-0.0959434
-0.0842528
-0.0847896
-0.0861568
-0.0826661
-0.0907253
-0.0924742
-0.0820225
-0.0902217
-0.0907457
-0.0801564
-0.0876251
-0.0880937
-0.0868653
-0.0977047
-0.0874494
-0.0858192
-0.0915696
-0.0876174
-0.0808053
-0.0777118
-0.0779167
-0.0858937
-0.0910493
-0.0785809
-0.0820348
-0.0916474
-0.0854492
-0.0887071
-0.0864309
-0.0848481
-0.0992975
-0.0923312
-0.0830016
-0.0905969
-0.0925612
-0.0837751
-0.0830702
-0.0767449
-0.0759367
-0.0859031
-0.0766182
-0.0780592
-0.0879332
-0.0856221
-0.0869933
-0.0859278
-0.0863545
-0.0958435
-0.0988315
-0.0844027
-0.084442
-0.087817
-0.0785443
-0.0874232
-0.0806604
-0.0810783
-0.0919034
-0.0860013
-0.0822289
-0.0923747
-0.0880855
-0.0861096
-0.0915939
-0.0848971
-0.0940182
-0.0991208
-0.0867503
-0.0889596
-0.0961304
-0.0884309
-0.0917137
-0.0866013
-0.0839533
-0.100312
-0.0944864
-0.085201
-0.093615
-0.093632
-0.087476
-0.0886641
-0.0823198
-0.0901613
-0.105091
-0.0888798
-0.0829824
-0.0928302
-0.0886987
-0.0884041
-0.0885057
-0.0814501
-0.0909685
-0.0892955
-0.0792899
-0.0918691
-0.0996948
-0.0931389
-0.0983276
-0.0831336
-0.0811979
-0.101108
-0.0923595
-0.095845
-0.104086
-0.0912597
-0.0874201
-0.0909818
-0.0857836
-0.0931485
-0.0953979
-0.0827257
-0.0871901
-0.0940188
-0.0885183
-0.0902256
-0.0899771
-0.0855639
-0.0974309
-0.0937468
-0.0867058
-0.0976381
-0.0970078
-0.091982
-0.0991628
-0.0922996
-0.0958908
-0.104584
-0.0883461
-0.0839103
-0.0914315
-0.0866799
-0.0876193
-0.0915878
-0.09005
-0.0949977
-0.0933635
-0.0813813
-0.0912001
-0.100177
-0.0928375
-0.0958358
-0.0915106
-0.0910213
-0.101717
-0.0882213
-0.0841647
-0.0953
-0.0974374
-0.0989339
-0.100873
-0.0875733
-0.0941819
-0.101778
-0.0886042
-0.0937235
-0.10251
-0.0953086
-0.0899403
-0.0848555
-0.0763773
-0.0882525
-0.0837096
-0.0755132
-0.0803634
-0.0750859
-0.0669902
-0.0717636
-0.0631816
-0.0663225
-0.0692785
-0.0501144
-0.0499401
-0.0597344
-0.0555628
-0.0651362
-0.0745715
-0.0680517
-0.0799283
-0.0795328
-0.0688743
-0.0746323
-0.0778594
-0.0777374
-0.0862451
-0.0850886
-0.0902458
-0.101026
-0.101384
-0.102085
-0.111315
-0.104416
-0.102548
-0.111264
-0.103164
-0.106316
-0.107058
-0.0941831
-0.0979572
-0.102301
-0.0943991
-0.098455
-0.0968338
-0.0931908
-0.103274
-0.0984722
-0.0907204
-0.101388
-0.0967636
-0.0897981
-0.0986638
-0.0999631
-0.102854
-0.106772
-0.093782
-0.0907692
-0.0999363
-0.0935448
-0.093052
-0.091854
-0.0843523
-0.0974576
-0.0977008
-0.089566
-0.098363
-0.0970406
-0.0922359
-0.0969526
-0.093565
-0.0954686
-0.106133
-0.0949448
-0.0900042
-0.100428
-0.099192
-0.0953607
-0.0888537
-0.0816519
-0.0907472
-0.103236
-0.0934598
-0.0970884
-0.10399
-0.094687
-0.0989669
-0.0908094
-0.0911015
-0.102192
-0.0992318
-0.0870248
-0.0950099
-0.0937381
-0.0892029
-0.0917605
-0.0825413
-0.0847812
-0.0948621
-0.0830462
-0.0863947
-0.100334
-0.0955232
-0.0965641
-0.0977325
-0.0886492
-0.100883
-0.103165
-0.0860539
-0.0944896
-0.100918
-0.0987301
-0.0997557
-0.0924369
-0.0914871
-0.0949353
-0.0869011
-0.0833185
-0.0946356
-0.0904636
-0.0943683
-0.0992378
-0.0905353
-0.0956736
-0.100508
-0.0874314
-0.0930143
-0.0989729
-0.0895697
-0.0929732
-0.0944793
-0.0911069
-0.0990048
-0.0931856
-0.0841237
-0.0956256
-0.0982067
-0.0896018
-0.0948511
-0.0884135
-0.0958028
-0.102746
-0.0878042
-0.093514
-0.103226
-0.100695
-0.0980696
-0.0957044
-0.0859395
-0.0956012
-0.0939214
-0.0789351
-0.0854091
-0.0925874
-0.0861175
-0.0924515
-0.0906018
-0.0898984
-0.10173
-0.09275
-0.0870255
-0.100536
-0.0989275
-0.0984683
-0.101914
-0.093611
-0.102492
-0.105473
-0.0830952
-0.0878322
-0.0894477
-0.0931444
-0.0962714
-0.094941
-0.090704
-0.100609
-0.0934309
-0.0824141
-0.0906326
-0.0897665
-0.0905921
-0.0993328
-0.090577
-0.0899155
-0.09842
-0.0865533
-0.0885242
-0.0937081
-0.0868581
-0.0879658
-0.0914668
-0.0884206
-0.09681
-0.0989686
-0.0871069
-0.0976189
-0.100847
-0.0978951
-0.103737
-0.0992567
-0.0937999
-0.101715
-0.0884888
-0.0816224
-0.0927256
-0.0875813
-0.0832579
-0.08808
-0.0802764
-0.0871002
-0.0931261
-0.0839485
-0.0897394
-0.0939117
-0.0867083
-0.0903586
-0.0911917
-0.0889903
-0.0979016
-0.093065
-0.0801936
-0.0941282
-0.0945151
-0.088171
-0.0929029
-0.0870289
-0.0896167
-0.0943825
-0.0808908
-0.0810228
-0.0937783
-0.0987091
-0.0927501
-0.0891171
-0.0826897
-0.0947066
-0.0939034
-0.0791665
-0.0893163
-0.092295
-0.0870604
-0.0926107
-0.083099
-0.0786888
-0.0893866
-0.0848149
-0.0820067
-0.0923024
-0.0905221
-0.0888346
-0.0929326
-0.0866287
-0.094395
-0.102766
-0.0898887
-0.0951332
-0.099062
-0.0908587
-0.0927321
-0.0909286
-0.0862629
-0.0970804
-0.0855852
-0.0803592
-0.0911097
-0.0945495
-0.091136
-0.0989587
-0.0868668
-0.0900036
-0.102731
-0.093014
-0.0911069
-0.0995338
-0.0930456
-0.0933196
-0.0947526
-0.0912442
-0.0981882
-0.0981233
-0.0813114
-0.0934986
-0.0982274
-0.0938106
-0.0985686
-0.0997261
-0.100062
-0.110243
-0.103326
-0.0986755
-0.114363
-0.107947
-0.0976956
-0.0951693
-0.0879653
-0.0982739
-0.10359
-0.0894129
-0.0913109
-0.0979961
-0.0926931
-0.0974892
-0.0980492
-0.0933193
-0.104443
-0.0977889
-0.0923085
-0.103274
-0.104967
-0.100584
-0.104598
-0.0965878
-0.100374
-0.106261
-0.0943202
-0.090774
-0.100372
-0.0957649
-0.100272
-0.101271
-0.0933814
-0.105552
-0.107725
-0.0931388
-0.101763
-0.108042
-0.103643
-0.106709
-0.0978353
-0.0971183
-0.106481
-0.0925182
-0.0876264
-0.0975061
-0.0931541
-0.0944384
-0.0983875
-0.0908836
-0.101334
-0.105895
-0.0945187
-0.0959699
-0.104011
-0.103709
-0.107227
-0.102251
-0.0940569
-0.104486
-0.103173
-0.0943387
-0.10702
-0.102466
-0.0964132
-0.104117
-0.0975894
-0.0988243
-0.108672
-0.0974068
-0.101521
-0.11109
-0.100964
-0.100204
-0.100769
-0.0924987
-0.102296
-0.103107
-0.0930462
-0.0991074
-0.102036
-0.0956555
-0.097828
-0.093424
-0.0961536
-0.108898
-0.0996902
-0.0950566
-0.106628
-0.10064
-0.10426
-0.107585
-0.101681
-0.106573
-0.106679
-0.0923034
-0.0973076
-0.107805
-0.104003
-0.0989442
-0.0968309
-0.092773
-0.107307
-0.105736
-0.0987474
-0.107043
-0.105942
-0.10022
-0.106014
-0.0983691
-0.101553
-0.109861
-0.0978714
-0.0941467
-0.106586
-0.0970417
-0.0983141
-0.097844
-0.0884937
-0.0994174
-0.102167
-0.0904311
-0.101729
-0.105207
-0.0977449
-0.102624
-0.0979897
-0.098766
-0.109392
-0.105339
-0.101164
-0.112226
-0.103803
-0.0998587
-0.102358
-0.0931549
-0.100189
-0.103039
-0.0870645
-0.0930216
-0.109075
-0.101874
-0.105437
-0.102187
-0.0989652
-0.112704
-0.107575
-0.102932
-0.107942
-0.102294
-0.0982032
-0.102887
-0.0944244
-0.0985568
-0.105525
-0.0967114
-0.0971473
-0.102757
-0.0980942
-0.0995991
-0.0980944
-0.0917637
-0.0984134
-0.1018
-0.0939909
-0.109325
-0.112053
-0.103809
-0.106495
-0.10263
-0.100653
-0.11126
-0.0938622
-0.0872453
-0.101098
-0.10114
-0.0996314
-0.103606
-0.099003
-0.110479
-0.114973
-0.1021
-0.112809
-0.111618
-0.0973181
-0.103103
-0.101117
-0.104131
-0.115874
-0.105887
-0.0971902
-0.103015
-0.0971196
-0.0928594
-0.101533
-0.0949528
-0.101434
-0.110961
-0.0945244
-0.0966208
-0.1061
-0.10262
-0.105957
-0.103017
-0.0946065
-0.104482
-0.105607
-0.0955234
-0.0999932
-0.102871
-0.0965458
-0.104538
-0.101942
-0.0989121
-0.1063
-0.0969574
-0.0968989
-0.107943
-0.0999488
-0.102476
-0.105725
-0.101123
-0.10354
-0.104379
-0.0929066
-0.0980686
-0.105233
-0.095534
-0.0993408
-0.0977173
-0.0937683
-0.108416
-0.10597
-0.0969196
-0.103858
-0.102616
-0.100486
-0.111649
-0.104852
-0.106782
-0.114969
-0.101708
-0.100665
-0.111614
-0.0947154
-0.0960849
-0.0967105
-0.0874197
-0.101421
-0.103283
-0.0916262
-0.105532
-0.111259
-0.0980525
-0.104551
-0.0998247
-0.104541
-0.116209
-0.103022
-0.0977224
-0.108756
-0.102027
-0.10129
-0.100813
-0.0916124
-0.0987703
-0.107053
-0.0960829
-0.104897
-0.111216
-0.104019
-0.106047
-0.105687
-0.0991747
-0.110826
-0.105521
-0.094018
-0.100369
-0.105581
-0.103582
-0.108234
-0.09242
-0.0929982
-0.103944
-0.0937604
-0.0943776
-0.107396
-0.10008
-0.102681
-0.103872
-0.0976012
-0.109427
-0.111427
-0.0951971
-0.101038
-0.103615
-0.0952271
-0.102232
-0.0982748
-0.0945381
-0.105086
-0.0964551
-0.0949134
-0.109237
-0.103973
-0.102571
-0.104669
-0.0994692
-0.105368
-0.107894
-0.0950264
-0.105693
-0.107667
-0.0937712
-0.0979207
-0.0958237
-0.0912479
-0.101302
-0.09364
-0.0879832
-0.0988476
-0.0991123
-0.0986448
-0.101485
-0.0965544
-0.100081
-0.107886
-0.094879
-0.0952564
-0.104144
-0.0975101
-0.103444
-0.102799
-0.0955488
-0.1053
-0.104737
-0.092434
-0.0985098
-0.102436
-0.103868
-0.108678
-0.106991
-0.102101
-0.108129
-0.0978532
-0.0936701
-0.107683
-0.105585
-0.100018
-0.10049
-0.0932914
-0.102231
-0.107901
-0.0950352
-0.0995531
-0.105882
-0.0997884
-0.103659
-0.102425
-0.100086
-0.111244
-0.106823
-0.0953132
-0.10919
-0.107808
-0.103672
-0.110601
-0.100553
-0.100828
-0.111591
-0.099462
-0.1033
-0.109956
-0.0971047
-0.10447
-0.10519
-0.102161
-0.114836
-0.113011
-0.099535
-0.108446
-0.112422
-0.111172
-0.113587
-0.10537
-0.105027
-0.114234
-0.104715
-0.0998903
-0.105892
-0.101259
-0.0954283
-0.0976737
-0.0886769
-0.105157
-0.10927
-0.105807
-0.111577
-0.111961
-0.107969
-0.11166
-0.111289
-0.104087
-0.114448
-0.109769
-0.101306
-0.106496
-0.107367
-0.106862
-0.109579
-0.102915
-0.101738
-0.108959
-0.100608
-0.100405
-0.10973
-0.105662
-0.105559
-0.107443
-0.105135
-0.115134
-0.114447
-0.101098
-0.110343
-0.115169
-0.108938
-0.117059
-0.101711
-0.0968151
-0.115501
-0.105938
-0.100072
-0.109263
-0.100496
-0.0960001
-0.099119
-0.098424
-0.104744
-0.109801
-0.0903408
-0.0957616
-0.0983002
-0.0868102
-0.0863223
-0.0778148
-0.0740498
-0.0772123
-0.0725759
-0.0590601
-0.0709617
-0.0694865
-0.0672122
-0.0761174
-0.0757373
-0.0810086
-0.0889876
-0.0819139
-0.0873715
-0.0986646
-0.0937793
-0.0953077
-0.100857
-0.100069
-0.116593
-0.121043
-0.109522
-0.125901
-0.126576
-0.117365
-0.12069
-0.115813
-0.110063
-0.117129
-0.110122
-0.109014
-0.119994
-0.115292
-0.109932
-0.110824
-0.105631
-0.112991
-0.115391
-0.0986341
-0.105006
-0.114299
-0.107111
-0.109244
-0.1092
-0.108872
-0.117936
-0.112342
-0.102674
-0.114087
-0.111465
-0.105822
-0.110415
-0.104819
-0.106838
-0.114975
-0.0994793
-0.100397
-0.110758
-0.103556
-0.107616
-0.10973
-0.103563
-0.11541
-0.112398
-0.100404
-0.112117
-0.114442
-0.10925
-0.11148
-0.104672
-0.10577
-0.116214
-0.107664
-0.100715
-0.109683
-0.108646
-0.107422
-0.106787
-0.0988963
-0.103296
-0.108639
-0.0957857
-0.0984086
-0.108156
-0.111971
-0.115523
-0.113242
-0.103552
-0.112818
-0.105966
-0.0980451
-0.10897
-0.101802
-0.0985898
-0.10637
-0.103958
-0.107726
-0.121819
-0.107802
-0.10418
-0.106009
-0.09929
-0.105681
-0.115559
-0.101314
-0.102485
-0.10161
-0.0946444
-0.105191
-0.104864
-0.0989925
-0.103827
-0.102289
-0.101334
-0.112556
-0.104863
-0.100973
-0.112228
-0.104558
-0.104368
-0.112707
-0.105518
-0.113558
-0.115643
-0.100894
-0.104068
-0.110169
-0.101687
-0.0925593
-0.0979414
-0.102388
-0.113556
-0.109646
-0.100973
-0.111309
-0.108794
-0.104814
-0.105882
-0.0993537
-0.106769
-0.11462
-0.102482
-0.102919
-0.108415
-0.10078
-0.100902
-0.101445
-0.095121
-0.104315
-0.105777
-0.0943403
-0.10662
-0.111543
-0.106791
-0.111029
-0.106062
-0.106554
-0.108654
-0.102017
-0.105286
-0.116229
-0.108125
-0.104371
-0.104782
-0.0933963
-0.100876
-0.107203
-0.093058
-0.100682
-0.107737
-0.100558
-0.105651
-0.102996
-0.0947802
-0.107949
-0.102182
-0.0976564
-0.106903
-0.104442
-0.100293
-0.104848
-0.0990044
-0.101468
-0.109275
-0.0970159
-0.0981127
-0.112776
-0.100825
-0.100678
-0.104785
-0.0986831
-0.1117
-0.109499
-0.0949912
-0.105404
-0.107576
-0.0996439
-0.102986
-0.0968896
-0.0974284
-0.107805
-0.100426
-0.0895539
-0.100284
-0.0969462
-0.0958274
-0.100912
-0.0963286
-0.102347
-0.104217
-0.0913764
-0.100051
-0.11536
-0.109084
-0.111896
-0.109504
-0.104526
-0.112596
-0.0998715
-0.0829939
-0.0939508
-0.0917439
-0.0918264
-0.0987683
-0.0929091
-0.0968201
-0.107185
-0.0949043
-0.0942606
-0.107191
-0.100424
-0.107208
-0.104479
-0.094099
-0.103938
-0.102875
-0.092296
-0.100841
-0.102263
-0.0965508
-0.101397
-0.0961705
-0.0984565
-0.108811
-0.101289
-0.0975755
-0.105393
-0.103521
-0.103238
-0.106194
-0.0990144
-0.104272
-0.105285
-0.0910484
-0.093473
-0.0994357
-0.089963
-0.0992943
-0.100266
-0.0958261
-0.106996
-0.101914
-0.0974848
-0.107152
-0.107899
-0.104013
-0.106941
-0.101167
-0.104226
-0.109347
-0.0970458
-0.101862
-0.113959
-0.104677
-0.109291
-0.109726
-0.102068
-0.10823
-0.111804
-0.102854
-0.112032
-0.112402
-0.105611
-0.11246
-0.107404
-0.107437
-0.118169
-0.104404
-0.0967498
-0.108354
-0.103449
-0.102301
-0.10543
-0.0980529
-0.10635
-0.110004
-0.100573
-0.109348
-0.115164
-0.106995
-0.110845
-0.11248
-0.111678
-0.119949
-0.112109
-0.104028
-0.115105
-0.107906
-0.101952
-0.102767
-0.0959773
-0.0987837
-0.111861
-0.10204
-0.107715
-0.116779
-0.109681
-0.110826
-0.107025
-0.102589
-0.112773
-0.116685
-0.104664
-0.111274
-0.112093
-0.106022
-0.110775
-0.10249
-0.10117
-0.112378
-0.102472
-0.100976
-0.113967
-0.111529
-0.106415
-0.109317
-0.101044
-0.111379
-0.116376
-0.10655
-0.112374
-0.115644
-0.102178
-0.106748
-0.104546
-0.101082
-0.112753
-0.110256
-0.101624
-0.11241
-0.110565
-0.107742
-0.111644
-0.104439
-0.109693
-0.117326
-0.104285
-0.10892
-0.116351
-0.108337
-0.110113
-0.112175
-0.104462
-0.113168
-0.112917
-0.101626
-0.111167
-0.109536
-0.101586
-0.107341
-0.102228
-0.106555
-0.113639
-0.104991
-0.105454
-0.116331
-0.11376
-0.111882
-0.107755
-0.0956857
-0.10336
-0.111498
-0.100578
-0.103452
-0.109075
-0.101913
-0.111002
-0.107263
-0.101538
-0.114708
-0.108654
-0.0995704
-0.112466
-0.113675
-0.107385
-0.111872
-0.100953
-0.105354
-0.113043
-0.100982
-0.102376
-0.110773
-0.102144
-0.104751
-0.108777
-0.102787
-0.116214
-0.115
-0.102839
-0.111312
-0.11323
-0.110301
-0.117659
-0.109916
-0.107791
-0.118051
-0.106961
-0.105184
-0.110746
-0.105142
-0.104199
-0.107245
-0.103779
-0.112192
-0.118272
-0.105457
-0.112081
-0.115557
-0.1085
-0.111207
-0.108632
-0.105945
-0.116514
-0.105803
-0.0971685
-0.108173
-0.104637
-0.0980777
-0.102051
-0.0990174
-0.103166
-0.11361
-0.10523
-0.106883
-0.116346
-0.109503
-0.11534
-0.116329
-0.109062
-0.115111
-0.113734
-0.097003
-0.107108
-0.108575
-0.101667
-0.106527
-0.0988556
-0.0980779
-0.112314
-0.106882
-0.103464
-0.113612
-0.107775
-0.104268
-0.108385
-0.101223
-0.113174
-0.113996
-0.0995878
-0.10536
-0.11109
-0.107237
-0.108163
-0.101851
-0.103203
-0.114371
-0.108603
-0.103118
-0.11243
-0.112849
-0.109122
-0.113781
-0.100433
-0.108529
-0.121428
-0.10903
-0.109242
-0.11257
-0.105112
-0.109079
-0.109333
-0.104089
-0.108858
-0.105519
-0.0994185
-0.108754
-0.111371
-0.104884
-0.109947
-0.103146
-0.103416
-0.122227
-0.110455
-0.105096
-0.117929
-0.11286
-0.113287
-0.113376
-0.104819
-0.108308
-0.111671
-0.0955695
-0.102291
-0.110973
-0.105726
-0.109669
-0.105321
-0.101511
-0.106878
-0.101654
-0.0938178
-0.108739
-0.111112
-0.105617
-0.112261
-0.1054
-0.106743
-0.114897
-0.0983798
-0.0977512
-0.106645
-0.102273
-0.10787
-0.107587
-0.103367
-0.113657
-0.111055
-0.0991851
-0.112052
-0.115617
-0.109652
-0.114317
-0.103688
-0.107305
-0.120291
-0.110178
-0.0967782
-0.105196
-0.101695
-0.103658
-0.106418
-0.100766
-0.107692
-0.110497
-0.0937024
-0.0997729
-0.104808
-0.103865
-0.109327
-0.103542
-0.100272
-0.112637
-0.100457
-0.0935694
-0.104399
-0.102326
-0.0991636
-0.103093
-0.0970175
-0.104608
-0.112017
-0.104581
-0.105112
-0.112571
-0.106485
-0.108412
-0.110093
-0.0996959
-0.104907
-0.106742
-0.0956032
-0.105801
-0.101515
-0.0918712
-0.106338
-0.101081
-0.106045
-0.116707
-0.105353
-0.104212
-0.115015
-0.105482
-0.10208
-0.106911
-0.097664
-0.105529
-0.112674
-0.102287
-0.109206
-0.111094
-0.103956
-0.105136
-0.103115
-0.0997835
-0.115547
-0.10921
-0.0984727
-0.11231
-0.105892
-0.102662
-0.107076
-0.107987
-0.114225
-0.116889
-0.101335
-0.103024
-0.114849
-0.110349
-0.107405
-0.10695
-0.101077
-0.114208
-0.110481
-0.0992732
-0.109301
-0.110965
-0.106643
-0.108111
-0.104626
-0.108038
-0.118174
-0.110579
-0.104699
-0.112386
-0.104821
-0.104054
-0.110256
-0.0986144
-0.104617
-0.109704
-0.0969237
-0.101691
-0.109232
-0.1049
-0.108997
-0.10624
-0.102148
-0.118809
-0.112116
-0.107728
-0.118773
-0.11631
-0.112712
-0.114811
-0.102409
-0.106794
-0.115012
-0.100341
-0.104689
-0.111978
-0.105065
-0.104151
-0.104459
-0.0987105
-0.114162
-0.112471
-0.105196
-0.111754
-0.106667
-0.101566
-0.106437
-0.0976229
-0.096483
-0.108293
-0.0980587
-0.0942372
-0.111009
-0.106312
-0.11088
-0.117454
-0.110317
-0.117357
-0.115185
-0.102113
-0.108329
-0.118822
-0.109496
-0.110811
-0.108717
-0.0996644
-0.110823
-0.0979745
-0.0881368
-0.0989883
-0.0967808
-0.0934154
-0.0964994
-0.0831839
-0.0838165
-0.0834883
-0.0709994
-0.0664065
-0.0767609
-0.071934
-0.0736501
-0.0737214
-0.0702972
-0.0871681
-0.0882154
-0.0771717
-0.0866594
-0.0908219
-0.0910436
-0.104915
-0.108673
-0.109181
-0.127266
-0.118991
-0.117029
-0.127785
-0.123357
-0.12906
-0.131905
-0.116874
-0.121551
-0.12462
-0.109456
-0.115521
-0.116366
-0.109246
-0.111078
-0.105548
-0.102335
-0.112791
-0.106987
-0.0993991
-0.109357
-0.105605
-0.109473
-0.115841
-0.108913
-0.108692
-0.111618
-0.102812
-0.105778
-0.114497
-0.103657
-0.105003
-0.108538
-0.103638
-0.114028
-0.115013
-0.102402
-0.112319
-0.114231
-0.108375
-0.115148
-0.110178
-0.107034
-0.117092
-0.101878
-0.101176
-0.112715
-0.106156
-0.103494
-0.10611
-0.0967851
-0.108899
-0.115009
-0.102254
-0.109766
-0.115164
-0.11095
-0.1139
-0.111034
-0.11156
-0.121714
-0.111053
-0.100416
-0.111481
-0.107885
-0.0994844
-0.101737
-0.0969963
-0.101523
-0.110303
-0.0977799
-0.101705
-0.111188
-0.104235
-0.10821
-0.107809
-0.104634
-0.117344
-0.115466
-0.103187
-0.107734
-0.105395
-0.0984616
-0.103335
-0.0942383
-0.0974418
-0.110974
-0.10362
-0.100678
-0.1108
-0.106211
-0.106984
-0.10837
-0.101252
-0.108703
-0.114554
-0.102107
-0.106968
-0.112318
-0.10451
-0.108277
-0.106075
-0.102042
-0.113192
-0.101476
-0.0982894
-0.111661
-0.11402
-0.110552
-0.112989
-0.104036
-0.10351
-0.111743
-0.0992038
-0.101687
-0.110535
-0.10327
-0.102274
-0.102236
-0.0950863
-0.108815
-0.104275
-0.0897289
-0.0993047
-0.104615
-0.102905
-0.108679
-0.104955
-0.105606
-0.113412
-0.100819
-0.102236
-0.112942
-0.107622
-0.10583
-0.106187
-0.0992754
-0.106463
-0.109355
-0.0936179
-0.0965257
-0.102429
-0.0989275
-0.103011
-0.104973
-0.10338
-0.117526
-0.102355
-0.0949198
-0.110297
-0.106312
-0.103077
-0.105798
-0.098833
-0.108454
-0.11214
-0.0950852
-0.0955272
-0.104139
-0.0999616
-0.102396
-0.10312
-0.0973963
-0.107844
-0.107742
-0.0975286
-0.105533
-0.108094
-0.102306
-0.105181
-0.100529
-0.0973288
-0.102207
-0.0917758
-0.0921532
-0.100742
-0.0950912
-0.0980349
-0.100563
-0.0960572
-0.107082
-0.112614
-0.0988868
-0.105342
-0.103697
-0.0946032
-0.101304
-0.0998299
-0.0968769
-0.10582
-0.100393
-0.0919089
-0.104992
-0.102563
-0.0939613
-0.0995662
-0.0955888
-0.100656
-0.107696
-0.0976255
-0.0986262
-0.103402
-0.0969126
-0.0990758
-0.103464
-0.0990656
-0.107732
-0.101667
-0.0907876
-0.099921
-0.0991308
-0.0892662
-0.0941416
-0.088663
-0.0904107
-0.107762
-0.101892
-0.0991295
-0.109801
-0.0990202
-0.095399
-0.100797
-0.0973989
-0.10556
-0.109133
-0.0929156
-0.0947183
-0.102826
-0.0957388
-0.100756
-0.0917465
-0.087934
-0.105373
-0.0985916
-0.0935583
-0.106647
-0.104474
-0.102205
-0.106494
-0.101305
-0.10442
-0.119213
-0.103826
-0.105986
-0.111425
-0.103224
-0.104917
-0.104168
-0.0984957
-0.106681
-0.107054
-0.0958076
-0.107069
-0.108329
-0.102188
-0.105563
-0.0972579
-0.101554
-0.111478
-0.10707
-0.104267
-0.113321
-0.10681
-0.106324
-0.109193
-0.0970021
-0.1033
-0.110913
-0.0982061
-0.104756
-0.109116
-0.104836
-0.10807
-0.105025
-0.102853
-0.115087
-0.111552
-0.10377
-0.114864
-0.109847
-0.101812
-0.103684
-0.0980836
-0.102845
-0.107991
-0.0938898
-0.0954076
-0.105711
-0.0986982
-0.10942
-0.110335
-0.103688
-0.110492
-0.108302
-0.0994904
-0.11338
-0.11389
-0.101772
-0.106648
-0.0981155
-0.10166
-0.112556
-0.0987102
-0.0960678
-0.102504
-0.0997638
-0.102813
-0.107552
-0.100469
-0.108302
-0.111457
-0.10116
-0.110657
-0.115769
-0.110197
-0.111247
-0.106766
-0.104336
-0.115465
-0.109975
-0.100745
-0.112144
-0.103583
-0.100282
-0.106037
-0.102326
-0.102234
-0.108833
-0.0962172
-0.0990935
-0.11196
-0.106537
-0.107687
-0.107466
-0.102046
-0.113667
-0.114715
-0.102038
-0.111756
-0.107815
-0.0996208
-0.109696
-0.106538
-0.107431
-0.114799
-0.100816
-0.101333
-0.109952
-0.104482
-0.104966
-0.108875
-0.0982002
-0.10247
-0.105065
-0.0988793
-0.0992233
-0.104387
-0.0943235
-0.0984899
-0.0953736
-0.0987838
-0.113109
-0.110864
-0.103686
-0.11359
-0.109186
-0.106618
-0.110757
-0.103734
-0.11109
-0.114241
-0.0964107
-0.0994455
-0.107875
-0.101641
-0.10402
-0.102462
-0.099669
-0.110208
-0.104895
-0.0912517
-0.104097
-0.110206
-0.104536
-0.109612
-0.102427
-0.105968
-0.115809
-0.105188
-0.098566
-0.106766
-0.104967
-0.107087
-0.109466
-0.0964991
-0.106105
-0.10604
-0.090866
-0.0975568
-0.107173
-0.101817
-0.1094
-0.104648
-0.1019
-0.11472
-0.108621
-0.100595
-0.109503
-0.106856
-0.100022
-0.105244
-0.0965109
-0.100313
-0.107116
-0.0983725
-0.0996657
-0.108759
-0.102814
-0.105122
-0.106528
-0.0981611
-0.111318
-0.112442
-0.101734
-0.110908
-0.108566
-0.102821
-0.106595
-0.100985
-0.0990745
-0.107587
-0.0964289
-0.0972676
-0.107849
-0.103622
-0.100777
-0.100326
-0.0951673
-0.103509
-0.109185
-0.0990223
-0.11186
-0.114527
-0.107481
-0.107379
-0.0974924
-0.0959854
-0.108
-0.100948
-0.0925737
-0.103787
-0.104496
-0.101096
-0.1053
-0.0984575
-0.106506
-0.108762
-0.0979046
-0.100356
-0.113012
-0.106457
-0.105694
-0.098263
-0.0927238
-0.103598
-0.104561
-0.0913879
-0.100888
-0.101897
-0.0990759
-0.10465
-0.0993137
-0.0980521
-0.107836
-0.0972413
-0.0920405
-0.106004
-0.108048
-0.107738
-0.108557
-0.0960071
-0.108785
-0.108801
-0.0961503
-0.0961341
-0.100254
-0.0932162
-0.0984304
-0.0952085
-0.101943
-0.116952
-0.108446
-0.101425
-0.106342
-0.106609
-0.108542
-0.112129
-0.102977
-0.107972
-0.11208
-0.0984093
-0.101319
-0.109638
-0.0961733
-0.098739
-0.0972713
-0.0938595
-0.104451
-0.103752
-0.0950146
-0.101542
-0.104101
-0.0985044
-0.104178
-0.103016
-0.101503
-0.106558
-0.0958271
-0.095587
-0.106831
-0.0960469
-0.0906723
-0.0929613
-0.0869208
-0.103134
-0.10459
-0.0915523
-0.0983825
-0.104354
-0.0938257
-0.0970556
-0.0984987
-0.0958751
-0.108679
-0.100419
-0.0867504
-0.0952711
-0.0924954
-0.0918626
-0.095533
-0.0902703
-0.101012
-0.107673
-0.096189
-0.100257
-0.104339
-0.0937644
-0.0961588
-0.0944545
-0.0896705
-0.105079
-0.100318
-0.0897167
-0.101171
-0.10418
-0.0985085
-0.101081
-0.0953937
-0.0930296
-0.104156
-0.0950888
-0.0939094
-0.104435
-0.0983223
-0.097883
-0.0999418
-0.0933107
-0.101759
-0.105556
-0.0960309
-0.0959072
-0.0965309
-0.0895117
-0.0966571
-0.104765
-0.103384
-0.110181
-0.102969
-0.0966529
-0.104877
-0.0984591
-0.10206
-0.106213
-0.0954413
-0.10143
-0.114342
-0.101246
-0.103873
-0.110817
-0.101333
-0.103056
-0.100215
-0.0947592
-0.103684
-0.101462
-0.0893968
-0.104078
-0.104937
-0.100891
-0.104062
-0.10015
-0.0979345
-0.107631
-0.100329
-0.10061
-0.111616
-0.103376
-0.103172
-0.0977007
-0.0875793
-0.103563
-0.1024
-0.0897883
-0.0940107
-0.100886
-0.0954768
-0.103138
-0.0998113
-0.0976719
-0.107763
-0.105597
-0.0970349
-0.108163
-0.107002
-0.101638
-0.102873
-0.0957919
-0.100927
-0.106891
-0.0939829
-0.0950676
-0.0998746
-0.0927817
-0.0993331
-0.104056
-0.0955282
-0.10237
-0.0996859
-0.0865573
-0.104065
-0.108775
-0.0992532
-0.104123
-0.0965861
-0.09472
-0.105587
-0.0965495
-0.0943919
-0.103179
-0.0975108
-0.0984422
-0.10364
-0.0966291
-0.107448
-0.111325
-0.0956271
-0.100595
-0.105323
-0.0964234
-0.103199
-0.0977386
-0.0854416
-0.0965265
-0.0904077
-0.0778987
-0.0865296
-0.0782272
-0.0751971
-0.0756148
-0.0689247
-0.0684066
-0.0718219
-0.0591022
-0.0595451
-0.0638145
-0.0626128
-0.0759926
-0.075479
-0.0711798
-0.0820377
-0.0801925
-0.0722008
-0.0821346
-0.0900949
-0.0837989
-0.0978677
-0.100006
-0.101289
-0.119827
-0.113454
-0.109857
-0.117624
-0.111929
-0.110296
-0.110464
-0.104063
-0.114517
-0.116634
-0.10135
-0.103264
-0.109543
-0.106254
-0.110545
-0.10055
-0.0985956
-0.103174
-0.0968025
-0.090047
-0.108181
-0.105337
-0.096841
-0.0994408
-0.0923421
-0.101571
-0.106637
-0.0961064
-0.0952075
-0.103339
-0.100029
-0.103137
-0.0997872
-0.0923168
-0.102991
-0.101884
-0.0926298
-0.10259
-0.105001
-0.0995302
-0.107597
-0.098411
-0.0977431
-0.111051
-0.100144
-0.098208
-0.107455
-0.0977333
-0.0989354
-0.101073
-0.0944825
-0.0953716
-0.102029
-0.0881591
-0.0952188
-0.09725
-0.0961714
-0.102578
-0.0967479
-0.0943365
-0.105808
-0.100784
-0.0956824
-0.104219
-0.101233
-0.094372
-0.0976539
-0.092647
-0.100922
-0.10734
-0.0926981
-0.0909573
-0.0997511
-0.0935329
-0.0960694
-0.096883
-0.0900417
-0.0983316
-0.103564
-0.0931469
-0.106532
-0.105594
-0.0939498
-0.0961153
-0.0903047
-0.097286
-0.105464
-0.091822
-0.0911476
-0.101575
-0.0944262
-0.0951638
-0.101471
-0.0938913
-0.102515
-0.0990126
-0.0870576
-0.0952627
-0.0993457
-0.092378
-0.101999
-0.0959353
-0.0920668
-0.107331
-0.0998551
-0.0904075
-0.0975464
-0.0943192
-0.0937929
-0.0978567
-0.0920417
-0.0966633
-0.101333
-0.08628
-0.0891973
-0.104353
-0.100427
-0.105292
-0.101169
-0.0958571
-0.102363
-0.0960341
-0.0851548
-0.0938659
-0.0944784
-0.0875602
-0.0921238
-0.0865892
-0.0906199
-0.100168
-0.0907916
-0.0895785
-0.102486
-0.10031
-0.100283
-0.10176
-0.0908917
-0.0970502
-0.0994878
-0.0869479
-0.0974983
-0.0992332
-0.0937765
-0.0947123
-0.0912145
-0.0873892
-0.0984459
-0.0948183
-0.087925
-0.099066
-0.0968976
-0.0891062
-0.100052
-0.0933291
-0.0986972
-0.0967175
-0.0842547
-0.0948301
-0.0994478
-0.0923143
-0.0918071
-0.0905481
-0.0862658
-0.0954869
-0.0924973
-0.0836561
-0.0965926
-0.096256
-0.0873641
-0.0922258
-0.0873674
-0.0915475
-0.100765
-0.0914551
-0.0896033
-0.09709
-0.0888887
-0.0876972
-0.0874431
-0.0804863
-0.0924794
-0.0938571
-0.0848326
-0.0909282
-0.0954149
-0.0897696
-0.09322
-0.0912884
-0.0909065
-0.101956
-0.0991762
-0.0898374
-0.0952804
-0.092871
-0.0900145
-0.0938418
-0.0810117
-0.0824262
-0.0926975
-0.0799249
-0.0828582
-0.0895378
-0.083997
-0.0889179
-0.0882227
-0.0835702
-0.0904067
-0.0945563
-0.0842534
-0.094515
-0.0948295
-0.0907642
-0.0936237
-0.0877418
-0.0901715
-0.0980584
-0.0816149
-0.0818246
-0.0921907
-0.0906636
-0.0920075
-0.0929228
-0.0812778
-0.0900053
-0.0946231
-0.0855144
-0.092255
-0.0944935
-0.0875599
-0.0927248
-0.0860594
-0.0833211
-0.0881623
-0.0805316
-0.0790474
-0.0921921
-0.092742
-0.0930206
-0.0970295
-0.0925922
-0.0982532
-0.0982753
-0.0874932
-0.0905845
-0.0964257
-0.092278
-0.0956269
-0.0921955
-0.0869732
-0.100525
-0.0977136
-0.0820495
-0.090736
-0.0912016
-0.086463
-0.0937202
-0.0891151
-0.0910943
-0.100551
-0.0888739
-0.088345
-0.10169
-0.0962377
-0.0963171
-0.102302
-0.0962688
-0.10413
-0.102188
-0.089696
-0.0930814
-0.0948717
-0.0955501
-0.101929
-0.0983303
-0.0965358
-0.104369
-0.097187
-0.0836577
-0.0948039
-0.0915132
-0.095727
-0.0989173
-0.0885732
-0.0940806
-0.100553
-0.0873622
-0.0879114
-0.0950142
-0.0878599
-0.0935367
-0.0928691
-0.0886772
-0.0990436
-0.0958719
-0.0863468
-0.0968581
-0.0985749
-0.0951633
-0.100018
-0.0975898
-0.0991188
-0.106544
-0.0966346
-0.0949673
-0.107792
-0.100114
-0.0964285
-0.0990823
-0.092162
-0.0996577
-0.102456
-0.0891799
-0.09911
-0.103452
-0.0949427
-0.100036
-0.0974037
-0.0934531
-0.104478
-0.0944451
-0.0848709
-0.0966183
-0.0944873
-0.0917364
-0.094308
-0.0857574
-0.091511
-0.0965343
-0.0837345
-0.0908416
-0.100206
-0.0889453
-0.0982498
-0.0974462
-0.091485
-0.106266
-0.100434
-0.0856481
-0.0957838
-0.097952
-0.0916676
-0.0935198
-0.0862687
-0.0879474
-0.103441
-0.0957995
-0.0907939
-0.100797
-0.0948941
-0.0958445
-0.0974674
-0.0885598
-0.0975895
-0.0992276
-0.0876686
-0.0912433
-0.0965373
-0.0904404
-0.0948478
-0.0920821
-0.0872756
-0.0978918
-0.0884084
-0.0820895
-0.0965379
-0.0985667
-0.0940513
-0.0984041
-0.0912472
-0.0958471
-0.102921
-0.0929128
-0.0939776
-0.101803
-0.0920366
-0.094769
-0.0927292
-0.087399
-0.0981944
-0.0935019
-0.0826558
-0.0903158
-0.0931354
-0.0878784
-0.0926278
-0.0875542
-0.0885827
-0.100045
-0.0888713
-0.0910274
-0.102709
-0.0941815
-0.0949674
-0.0968595
-0.0911649
-0.103828
-0.101607
-0.0864649
-0.093884
-0.10073
-0.0938456
-0.0977669
-0.0926681
-0.0906059
-0.0999133
-0.0943794
-0.089416
-0.102665
-0.0993541
-0.0975743
-0.0942081
-0.0825452
-0.0893914
-0.0954154
-0.0775994
-0.080822
-0.0911088
-0.0841365
-0.0868965
-0.0895208
-0.0891217
-0.101631
-0.0941787
-0.0840725
-0.0936565
-0.0974277
-0.0925984
-0.100045
-0.0940488
-0.0926272
-0.100858
-0.0883524
-0.0841703
-0.0944305
-0.0879784
-0.0894998
-0.091261
-0.0865797
-0.0954768
-0.098295
-0.0866711
-0.0889344
-0.0970319
-0.0901609
-0.095496
-0.0902642
-0.0883465
-0.0987448
-0.0908607
-0.087453
-0.0947028
-0.0880519
-0.0849077
-0.0888225
-0.0825539
-0.0914463
-0.0998205
-0.0873969
-0.0907772
-0.0966251
-0.0874475
-0.094135
-0.0952233
-0.0901557
-0.0983794
-0.0939666
-0.0859006
-0.0974084
-0.0976313
-0.0907298
-0.0949732
-0.091755
-0.0904834
-0.0997824
-0.0828453
-0.0786251
-0.0932635
-0.0881872
-0.0884441
-0.0934744
-0.0876067
-0.0959373
-0.0948956
-0.0824897
-0.093197
-0.0960464
-0.0855886
-0.0854374
-0.0816727
-0.0845996
-0.0998887
-0.0947547
-0.0842028
-0.0953529
-0.0927625
-0.0906541
-0.0962497
-0.0883757
-0.0941142
-0.0999385
-0.0821077
-0.0827456
-0.0903546
-0.0831718
-0.0891869
-0.0876391
-0.0766033
-0.0900407
-0.0865679
-0.0808425
-0.0917739
-0.0904486
-0.0813751
-0.0862152
-0.0814752
-0.0847536
-0.0972206
-0.0849523
-0.0835941
-0.0929105
-0.0867103
-0.0858028
-0.085902
-0.0790482
-0.0871122
-0.0880105
-0.076023
-0.0902742
-0.0943753
-0.0858312
-0.0876934
-0.081996
-0.0804678
-0.0914474
-0.0860636
-0.0813678
-0.089818
-0.0874883
-0.0849157
-0.085692
-0.0752129
-0.0806975
-0.0899717
-0.0771341
-0.0826296
-0.0913994
-0.0861118
-0.0889543
-0.0879707
-0.0852668
-0.0943178
-0.0910851
-0.0846005
-0.0948553
-0.094582
-0.0877366
-0.0913734
-0.0800117
-0.0819401
-0.0885749
-0.0784758
-0.0770796
-0.0900738
-0.0840501
-0.089078
-0.0929461
-0.0880066
-0.0953038
-0.096642
-0.0869733
-0.0928683
-0.0985212
-0.0902909
-0.0947664
-0.0898365
-0.0856533
-0.095823
-0.0880898
-0.0820502
-0.0939002
-0.0875315
-0.0839949
-0.0923517
-0.0851678
-0.0915985
-0.0934224
-0.0788784
-0.0869314
-0.094562
-0.0901699
-0.0926397
-0.0900202
-0.0817485
-0.0926129
-0.0893204
-0.0770769
-0.0896548
-0.0897335
-0.0846165
-0.0901498
-0.0860666
-0.0868452
-0.0989475
-0.087618
-0.0886839
-0.0965557
-0.0928086
-0.098572
-0.100309
-0.0887839
-0.0926142
-0.0894925
-0.0803428
-0.0879814
-0.090986
-0.0826698
-0.0868586
-0.0843962
-0.0825582
-0.0962179
-0.0897355
-0.0845523
-0.0925019
-0.0889944
-0.0872938
-0.091831
-0.0844425
-0.0920192
-0.0977928
-0.0791427
-0.0832531
-0.0905444
-0.080748
-0.083645
-0.0843897
-0.0828505
-0.093528
-0.0900759
-0.0801738
-0.0908746
-0.0933054
-0.0915171
-0.0933465
-0.0872422
-0.090071
-0.0964406
-0.078981
-0.0774089
-0.0875582
-0.081488
-0.075887
-0.0717927
-0.0617825
-0.0708456
-0.0723639
-0.0595337
-0.0613156
-0.0638721
-0.0570702
-0.055572
-0.0493774
-0.0513847
-0.0664341
-0.0583027
-0.0487761
-0.0602251
-0.0671788
-0.0704144
-0.0742319
-0.0671391
-0.0753618
-0.0874849
-0.0838291
-0.0874969
-0.106349
-0.102048
-0.103172
-0.103081
-0.0981749
-0.112865
-0.109754
-0.0953933
-0.105917
-0.1059
-0.0978402
-0.0983658
-0.0867404
-0.0859195
-0.0950562
-0.0792668
-0.0753569
-0.0890834
-0.0963904
-0.0968248
-0.0926994
-0.0802042
-0.0890999
-0.0971582
-0.0848478
-0.090173
-0.0915812
-0.084094
-0.0877087
-0.0837819
-0.0860347
-0.0956736
-0.0835934
-0.0777236
-0.0866717
-0.083487
-0.0830588
-0.0909565
-0.0881597
-0.0941281
-0.0910007
-0.0795396
-0.0897646
-0.0972768
-0.0958728
-0.095424
-0.0915971
-0.0848236
-0.0957266
-0.0893556
-0.0801372
-0.088983
-0.0845185
-0.0794878
-0.0850094
-0.0827633
-0.0865927
-0.0907963
-0.0793773
-0.0797297
-0.0947331
-0.0844176
-0.0850875
-0.0867307
-0.0836509
-0.0928792
-0.0919775
-0.0761872
-0.0839554
-0.0923154
-0.0846431
-0.0891705
-0.0876117
-0.0859101
-0.0945383
-0.0856095
-0.0774967
-0.0899436
-0.0863207
-0.0866288
-0.0896065
-0.084806
-0.0904202
-0.096042
-0.0817759
-0.0804582
-0.0833306
-0.0775233
-0.0805014
-0.0827388
-0.0781985
-0.0916139
-0.0906836
-0.0809074
-0.0880754
-0.0871634
-0.0806618
-0.0850791
-0.0789125
-0.0796922
-0.0933625
-0.0823144
-0.079729
-0.0898093
-0.0837715
-0.0834769
-0.0831887
-0.0783245
-0.0874852
-0.0889233
-0.0760536
-0.0848647
-0.0860764
-0.0793192
-0.0847591
-0.0880685
-0.0836127
-0.0909299
-0.0826528
-0.0733971
-0.0857426
-0.0800816
-0.0757261
-0.0794837
-0.0750798
-0.0843397
-0.0889107
-0.0748399
-0.0786793
-0.0887119
-0.0814015
-0.0860064
-0.0860081
-0.0812012
-0.0944288
-0.0908393
-0.0788057
-0.0868956
-0.0867361
-0.0807639
-0.0800768
-0.0743899
-0.07682
-0.0858567
-0.0762797
-0.0778566
-0.0900135
-0.0840537
-0.0845945
-0.0820749
-0.0757266
-0.0878194
-0.0874976
-0.0752487
-0.0828024
-0.0844658
-0.076924
-0.0828763
-0.0788539
-0.0753441
-0.08345
-0.0784248
-0.0711265
-0.0822703
-0.0782715
-0.0759524
-0.0802898
-0.0722826
-0.0783882
-0.0883082
-0.0780332
-0.0796295
-0.0834222
-0.076209
-0.0825406
-0.0839067
-0.0743334
-0.0842729
-0.0803244
-0.0766336
-0.0848451
-0.0814383
-0.0735956
-0.0784039
-0.0782969
-0.0773774
-0.0866804
-0.0754748
-0.0746141
-0.0827473
-0.0754658
-0.074242
-0.0745909
-0.0678587
-0.0780836
-0.0767016
-0.0648739
-0.0761701
-0.0798852
-0.075259
-0.0852236
-0.0810696
-0.0769059
-0.0878002
-0.0816272
-0.0779863
-0.0882283
-0.0841918
-0.0819093
-0.0796262
-0.0729161
-0.0813673
-0.0853361
-0.0724572
-0.0720105
-0.0761631
-0.0681473
-0.0746055
-0.0733359
-0.0732965
-0.0853477
-0.0751402
-0.0694925
-0.0799255
-0.0822714
-0.0783583
-0.0783619
-0.072935
-0.0752659
-0.085335
-0.0739012
-0.0691028
-0.0782122
-0.0720092
-0.0733207
-0.0778381
-0.0717224
-0.086379
-0.087237
-0.0736308
-0.0837692
-0.0882361
-0.0824257
-0.0870023
-0.0800169
-0.0764994
-0.0864819
-0.0747613
-0.069178
-0.0817178
-0.0815438
-0.0758979
-0.0829944
-0.0757816
-0.0840782
-0.0914957
-0.0808132
-0.0846234
-0.0919358
-0.0864178
-0.0890023
-0.0859972
-0.0814919
-0.0924545
-0.0851882
-0.0775838
-0.0837379
-0.0816367
-0.0767534
-0.0795521
-0.0784055
-0.0795869
-0.0940217
-0.0824601
-0.0812241
-0.0898094
-0.0842852
-0.085832
-0.0873177
-0.0817188
-0.091707
-0.0907048
-0.0759205
-0.0839009
-0.0864195
-0.0782253
-0.0819138
-0.075097
-0.0736258
-0.0879963
-0.0828283
-0.0740028
-0.0937401
-0.0899289
-0.0922196
-0.0899954
-0.0775803
-0.0867222
-0.0920883
-0.0781026
-0.0823694
-0.0896415
-0.0818215
-0.0849324
-0.0800918
-0.0756208
-0.0893946
-0.0850694
-0.0755086
-0.0844837
-0.0836354
-0.0803821
-0.0846757
-0.0784096
-0.0858415
-0.0960419
-0.0834526
-0.082779
-0.0927401
-0.0825949
-0.079877
-0.081331
-0.074549
-0.0838687
-0.0831064
-0.0752442
-0.0858665
-0.0888367
-0.0821588
-0.090259
-0.083511
-0.0830863
-0.0980445
-0.0895293
-0.0823617
-0.0919963
-0.090148
-0.0831755
-0.0868304
-0.0787132
-0.0750003
-0.0823149
-0.0781263
-0.0822498
-0.0904814
-0.0841596
-0.0850967
-0.0854205
-0.0807841
-0.0891688
-0.0858851
-0.0749681
-0.0845637
-0.0841686
-0.0778454
-0.0838336
-0.0799483
-0.0809307
-0.0897964
-0.0765799
-0.0749687
-0.0892053
-0.0854393
-0.0861567
-0.0883789
-0.0814141
-0.086865
-0.0886425
-0.0765028
-0.0913668
-0.0933887
-0.0851273
-0.086539
-0.0823599
-0.0765819
-0.0846274
-0.0716653
-0.0667557
-0.0778873
-0.0795022
-0.0794664
-0.0882004
-0.0803813
-0.0867136
-0.0930765
-0.0779854
-0.0848653
-0.0964563
-0.0892331
-0.0884962
-0.0843845
-0.0753828
-0.0858782
-0.0816359
-0.072063
-0.077079
-0.078337
-0.0791441
-0.0839268
-0.0793225
-0.0802554
-0.0915862
-0.0828427
-0.0822939
-0.0926058
-0.0854194
-0.0872719
-0.0877622
-0.0811149
-0.0879969
-0.0872142
-0.0723973
-0.0794027
-0.0828762
-0.0727316
-0.0769546
-0.0751446
-0.0804132
-0.0912459
-0.0826371
-0.0774857
-0.086214
-0.0821922
-0.0800933
-0.0878061
-0.0766853
-0.0799627
-0.0894737
-0.0765804
-0.0836167
-0.088367
-0.0783426
-0.0856316
-0.0841844
-0.0791177
-0.0905234
-0.0828227
-0.0710941
-0.0816303
-0.0806415
-0.083079
-0.089156
-0.0853329
-0.0879163
-0.093112
-0.0792417
-0.0751554
-0.0852423
-0.0789357
-0.0798233
-0.0813817
-0.0746522
-0.0844649
-0.085022
-0.0718282
-0.0795748
-0.0837999
-0.0782723
-0.0829065
-0.0803656
-0.0804811
-0.0924006
-0.0882453
-0.0829522
-0.089777
-0.0843187
-0.0815566
-0.0824481
-0.075226
-0.0759483
-0.0828074
-0.0710122
-0.0795047
-0.0866141
-0.0798887
-0.0796035
-0.0798209
-0.0791893
-0.0902051
-0.0873461
-0.0756621
-0.084518
-0.0852826
-0.0805507
-0.0835218
-0.07878
-0.079614
-0.0831743
-0.0714776
-0.0708537
-0.0840155
-0.0804888
-0.0844116
-0.0857379
-0.0758263
-0.0867697
-0.0940665
-0.0828962
-0.0910837
-0.0922604
-0.08535
-0.0855951
-0.0810235
-0.079786
-0.0847921
-0.0741904
-0.0677557
-0.0788767
-0.0748821
-0.075657
-0.078427
-0.0733038
-0.0805709
-0.0856778
-0.0709811
-0.0783297
-0.0846981
-0.079572
-0.0828124
-0.0805944
-0.0783981
-0.0821238
-0.0782065
-0.0688673
-0.0776428
-0.0763608
-0.0725595
-0.0781245
-0.0717644
-0.0791488
-0.0861735
-0.0768508
-0.0772892
-0.0871256
-0.0814792
-0.0802369
-0.0799312
-0.0707378
-0.0802116
-0.0769481
-0.0621015
-0.0716298
-0.0770581
-0.0704651
-0.0763209
-0.0739187
-0.0736282
-0.0866206
-0.0778728
-0.0710967
-0.0792136
-0.0808829
-0.0749946
-0.0785431
-0.0697189
-0.0765308
-0.0801854
-0.0632874
-0.0676921
-0.0760193
-0.0709927
-0.0750586
-0.0780051
-0.0735444
-0.0894796
-0.0828042
-0.07131
-0.0847048
-0.0840763
-0.0830058
-0.0873646
-0.0798861
-0.0805211
-0.0892099
-0.0763614
-0.0764622
-0.087573
-0.0778071
-0.0786997
-0.0828618
-0.0782869
-0.0912908
-0.089067
-0.0770444
-0.0836132
-0.080993
-0.0751176
-0.0843841
-0.0800513
-0.076708
-0.0903863
-0.0816927
-0.0767753
-0.0878878
-0.0827211
-0.0747698
-0.0741965
-0.0715717
-0.0781281
-0.0880302
-0.0753314
-0.0798919
-0.0845778
-0.077351
-0.0859423
-0.0870533
-0.0839283
-0.0881728
-0.0836394
-0.0692904
-0.0838041
-0.0850293
-0.0731897
-0.077942
-0.0736455
-0.080431
-0.0901836
-0.0779096
-0.0776728
-0.0852577
-0.0826725
-0.0808
-0.0859298
-0.0793736
-0.0926074
-0.0939233
-0.078525
-0.0799341
-0.0831654
-0.0715078
-0.0752846
-0.0788215
-0.0754254
-0.0861894
-0.0753502
-0.0738915
-0.0865993
-0.0826968
-0.0807826
-0.0829873
-0.0741621
-0.0837629
-0.0892124
-0.076313
-0.0781292
-0.0856737
-0.0784469
-0.0826633
-0.0810389
-0.0731498
-0.0829033
-0.0763119
-0.0729085
-0.0835409
-0.0860197
-0.0805112
-0.0831567
-0.0734424
-0.0762783
-0.0869946
-0.0746954
-0.0715209
-0.0756797
-0.0692755
-0.0667377
-0.0679351
-0.0596979
-0.0610614
-0.0613168
-0.0492432
-0.0523924
-0.0486751
-0.0381356
-0.0428224
-0.040229
-0.0484804
-0.0634297
-0.057245
-0.0522452
-0.0659481
-0.06491
-0.0693327
-0.0763153
-0.0690899
-0.083935
-0.0898318
-0.0801321
-0.0899039
-0.0968068
-0.0923802
-0.0925216
-0.0927618
-0.0897088
-0.100771
-0.0920218
-0.082564
-0.0924147
-0.0882473
-0.08367
-0.0876086
-0.0812766
-0.080963
-0.0918427
-0.0800185
-0.0787064
-0.0872388
-0.0784157
-0.0802127
-0.0813776
-0.0773595
-0.0885525
-0.0856475
-0.0757988
-0.0841877
-0.0911219
-0.0861005
-0.0916973
-0.0833738
-0.0823725
-0.092207
-0.081377
-0.0700362
-0.0806338
-0.0764602
-0.07432
-0.0810803
-0.074455
-0.0797442
-0.084588
-0.0701884
-0.0724156
-0.0846767
-0.0794507
-0.0820169
-0.0803217
-0.0789049
-0.0858755
-0.0873685
-0.0782566
-0.0915255
-0.0863119
-0.0800659
-0.0841973
-0.0783478
-0.0812846
-0.0837274
-0.0711786
-0.0736288
-0.0875346
-0.0810929
-0.0846244
-0.0888568
-0.0793581
-0.0853803
-0.0855148
-0.0744913
-0.0812198
-0.0781054
-0.0725024
-0.0772088
-0.0734552
-0.0729015
-0.0830208
-0.0774457
-0.072564
-0.0871561
-0.0785472
-0.078144
-0.0859819
-0.0787568
-0.08679
-0.0876808
-0.0728815
-0.0754639
-0.0822832
-0.0761578
-0.0803486
-0.0778181
-0.0737377
-0.0848164
-0.0798517
-0.0680859
-0.0805725
-0.0807128
-0.0761982
-0.0793223
-0.0701555
-0.0768427
-0.0873484
-0.0754751
-0.0739876
-0.0852666
-0.0787065
-0.0766726
-0.0777722
-0.0713932
-0.0816443
-0.0830183
-0.0717203
-0.080188
-0.084725
-0.0770406
-0.0786565
-0.0756729
-0.0747668
-0.0878705
-0.0804507
-0.073928
-0.0843143
-0.0800703
-0.0772042
-0.0808193
-0.0709948
-0.0754719
-0.0802093
-0.0672107
-0.0760482
-0.0845254
-0.075101
-0.0785163
-0.0755503
-0.0714066
-0.0849931
-0.0827708
-0.0737513
-0.0834554
-0.0784496
-0.0741665
-0.080483
-0.0739991
-0.0751366
-0.080805
-0.0693076
-0.0720823
-0.0817342
-0.0743559
-0.0736563
-0.0767232
-0.069764
-0.0794439
-0.0795573
-0.0780851
-0.0817918
-0.08718
-0.0807144
-0.0763396
-0.0718262
-0.0715677
-0.0783556
-0.069291
-0.0673277
-0.0758078
-0.0726288
-0.0727997
-0.0761921
-0.0679682
-0.076889
-0.079673
-0.0689754
-0.0737678
-0.0861028
-0.0762795
-0.0775191
-0.0753177
-0.0711108
-0.0805048
-0.0719249
-0.0621519
-0.0783732
-0.0774215
-0.07337
-0.0781786
-0.0729778
-0.0778656
-0.0862963
-0.0729751
-0.0748119
-0.0871365
-0.0758402
-0.076975
-0.072209
-0.0601698
-0.0712782
-0.075231
-0.0633848
-0.0679303
-0.0670698
-0.0637231
-0.0693572
-0.0648141
-0.0684033
-0.0772751
-0.0715661
-0.066262
-0.0773356
-0.0757219
-0.0803298
-0.0846992
-0.0692763
-0.0761406
-0.080471
-0.0667747
-0.0686218
-0.0718144
-0.0645924
-0.0691562
-0.0690194
-0.0652493
-0.0726505
-0.0677133
-0.0591869
-0.074125
-0.0764275
-0.0726077
-0.0773082
-0.0699906
-0.0708287
-0.0777215
-0.0683767
-0.0685756
-0.0838726
-0.0751586
-0.0754276
-0.0744286
-0.0680097
-0.0796463
-0.0842384
-0.0711184
-0.0767025
-0.0795932
-0.0720656
-0.0798085
-0.0816357
-0.0785727
-0.089228
-0.0734748
-0.0714301
-0.082397
-0.0750486
-0.0733935
-0.0777397
-0.0725179
-0.0801256
-0.0861022
-0.0732075
-0.0797092
-0.0898592
-0.0804388
-0.0848265
-0.0829543
-0.0829213
-0.0923294
-0.0836348
-0.0742553
-0.0850099
-0.0850665
-0.0782785
-0.0728708
-0.0658366
-0.0690248
-0.0836795
-0.0749114
-0.0745724
-0.0848415
-0.0783099
-0.079413
-0.076981
-0.0756825
-0.092047
-0.0918785
-0.0798851
-0.0827073
-0.0852492
-0.0810408
-0.0857923
-0.0801899
-0.0741748
-0.0837133
-0.074116
-0.0695308
-0.0822906
-0.0807077
-0.0787897
-0.0800125
-0.072792
-0.0828429
-0.0895656
-0.0774727
-0.0833288
-0.0899361
-0.0805175
-0.0849289
-0.0828213
-0.0736255
-0.0847402
-0.0808883
-0.0722558
-0.0825267
-0.0838376
-0.0794814
-0.0818651
-0.0782145
-0.0782529
-0.0898691
-0.077878
-0.081901
-0.095342
-0.0871931
-0.0856301
-0.0865649
-0.074787
-0.0839793
-0.07915
-0.0673834
-0.0760435
-0.0855365
-0.0793476
-0.0833074
-0.0732756
-0.0726084
-0.0846298
-0.0785886
-0.0777629
-0.0897153
-0.0852981
-0.081717
-0.0853162
-0.0778974
-0.0844913
-0.0889599
-0.0734691
-0.0830793
-0.0841439
-0.0778272
-0.0813621
-0.0807192
-0.0768607
-0.0901816
-0.0791725
-0.0703873
-0.077074
-0.0828392
-0.082015
-0.0851899
-0.0786231
-0.0813116
-0.088389
-0.0753751
-0.0750601
-0.0845727
-0.0765067
-0.0784775
-0.077579
-0.074422
-0.0842417
-0.0885516
-0.081212
-0.0775099
-0.0818539
-0.0754846
-0.0864525
-0.0817912
-0.078072
-0.085676
-0.0763911
-0.076025
-0.0836696
-0.0785183
-0.0722742
-0.0755496
-0.0741326
-0.0863694
-0.0901836
-0.0785953
-0.0786595
-0.085181
-0.0756666
-0.0848248
-0.0848464
-0.0808255
-0.0872522
-0.083186
-0.0736482
-0.0848505
-0.0823701
-0.0780779
-0.0802438
-0.0731609
-0.0748994
-0.0834378
-0.0714015
-0.0744482
-0.0800323
-0.0723493
-0.0785538
-0.079422
-0.079786
-0.0900329
-0.0860818
-0.0749696
-0.0837048
-0.0907999
-0.0792504
-0.0804261
-0.0767355
-0.0761643
-0.0911505
-0.0819221
-0.0735157
-0.0861523
-0.0816669
-0.0828598
-0.0898112
-0.0862961
-0.0889756
-0.0933353
-0.0784497
-0.0781678
-0.0830461
-0.0766341
-0.0802154
-0.0753015
-0.0675182
-0.0816506
-0.0790274
-0.0703371
-0.0812547
-0.0819286
-0.0785686
-0.0803253
-0.0737264
-0.0810148
-0.095714
-0.0801554
-0.073064
-0.0825191
-0.0782194
-0.0786575
-0.0787921
-0.0692774
-0.0791511
-0.0797392
-0.0727546
-0.0851269
-0.0893729
-0.0830433
-0.0868266
-0.0778068
-0.0784836
-0.0895518
-0.0801801
-0.0771334
-0.0851615
-0.0819423
-0.0778721
-0.0810994
-0.0718865
-0.0761084
-0.0809135
-0.0771309
-0.0823026
-0.0921375
-0.0824281
-0.0889323
-0.081183
-0.0772375
-0.0863751
-0.0858949
-0.0772524
-0.0854848
-0.0842133
-0.0745854
-0.0783326
-0.072218
-0.0724563
-0.080616
-0.0677353
-0.0703056
-0.0839316
-0.0803153
-0.0816869
-0.0844879
-0.0780946
-0.083795
-0.084922
-0.0732652
-0.0891743
-0.0945713
-0.0834617
-0.0870523
-0.0823034
-0.0785283
-0.0880781
-0.0712632
-0.0662763
-0.0772958
-0.0760428
-0.0759095
-0.0779124
-0.0689019
-0.0760661
-0.0829164
-0.069537
-0.0752621
-0.0864536
-0.0792469
-0.0815738
-0.0793891
-0.0742815
-0.083924
-0.0785869
-0.0729923
-0.0819393
-0.0772223
-0.0749267
-0.0795641
-0.076834
-0.079822
-0.0806419
-0.0636395
-0.0642714
-0.0797679
-0.0813353
-0.0853403
-0.0837075
-0.0774359
-0.0789625
-0.0766285
-0.0659998
-0.0704455
-0.0729933
-0.0680039
-0.0746016
-0.0710236
-0.0744966
-0.0850277
-0.0762699
-0.0722427
-0.0821532
-0.0808667
-0.0794702
-0.0843486
-0.0757406
-0.0793469
-0.0857422
-0.0728664
-0.0734447
-0.0855925
-0.0722888
-0.0739382
-0.071818
-0.0722484
-0.0821956
-0.0765016
-0.0701551
-0.0810163
-0.0811539
-0.0795906
-0.0840181
-0.0800725
-0.0836102
-0.09279
-0.0792662
-0.0789596
-0.0878264
-0.0811776
-0.0789158
-0.0784492
-0.0726993
-0.087552
-0.0869569
-0.0809565
-0.0907384
-0.093837
-0.081668
-0.0864725
-0.0755656
-0.0823867
-0.0933988
-0.0735982
-0.0694309
-0.078932
-0.076212
-0.0745524
-0.077506
-0.0716008
-0.078849
-0.0833891
-0.0709171
-0.0779484
-0.0889523
-0.0817518
-0.0870235
-0.0851678
-0.0803363
-0.0904878
-0.0850371
-0.0761388
-0.0856139
-0.0882062
-0.0861752
-0.0907924
-0.0818316
-0.0840189
-0.0904583
-0.0761133
-0.0768682
-0.0814051
-0.0746403
-0.0789115
-0.0738109
-0.0675831
-0.0795615
-0.0843053
-0.0747334
-0.0815512
-0.0840006
-0.0797521
-0.0824631
-0.0743273
-0.0740967
-0.0845893
-0.0769462
-0.0734387
-0.0840302
-0.0808769
-0.079554
-0.0837827
-0.0782805
-0.0871704
-0.0981551
-0.0852872
-0.0963713
-0.101731
-0.088334
-0.0921278
-0.0899366
-0.0830434
-0.0866988
-0.0776914
-0.0689415
-0.0798302
-0.0737772
-0.0723786
-0.0761854
-0.0686094
-0.0722462
-0.074445
-0.056379
-0.0614952
-0.0675019
-0.0608214
-0.0558255
-0.0489909
-0.0377851
-0.045789
-0.0450716
-0.0326285
-0.041682
-0.055282
-0.0581541
-0.0629715
-0.0649069
-0.0658245
-0.0839974
-0.0783118
-0.0742643
-0.0890458
-0.0933594
-0.0960732
-0.0972767
-0.0900777
-0.0970091
-0.0981382
-0.0843748
-0.0905114
-0.096727
-0.0860334
-0.090749
-0.0878223
-0.0816676
-0.0928265
-0.0869625
-0.0748612
-0.085463
-0.0889648
-0.0848987
-0.0878948
-0.0816038
-0.0814901
-0.089948
-0.0777613
-0.0804387
-0.0876149
-0.0755188
-0.0757557
-0.0763869
-0.0752035
-0.0871326
-0.0902538
-0.0779398
-0.0869286
-0.0878793
-0.0853721
-0.0880956
-0.0837023
-0.0834681
-0.092321
-0.0817931
-0.0772056
-0.0863767
-0.0816573
-0.0798078
-0.083286
-0.0795903
-0.092163
-0.0961364
-0.0845776
-0.0877666
-0.0875379
-0.080348
-0.0840852
-0.0788229
-0.0730067
-0.0879689
-0.0828484
-0.0744957
-0.0837105
-0.0814671
-0.0758335
-0.0796186
-0.0729128
-0.0816485
-0.0913651
-0.080858
-0.0788966
-0.088142
-0.0816305
-0.0849
-0.0864969
-0.084836
-0.09489
-0.0948499
-0.0784652
-0.0854889
-0.0879902
-0.081804
-0.0850332
-0.0753113
-0.0779254
-0.0856579
-0.075988
-0.0728604
-0.0878209
-0.0794686
-0.0772558
-0.0803084
-0.0770162
-0.08393
-0.0875475
-0.0714936
-0.0770347
-0.0826615
-0.0781755
-0.0790341
-0.0734363
-0.0697588
-0.0844239
-0.0798469
-0.074743
-0.0905703
-0.0889819
-0.0860809
-0.0884546
-0.0786343
-0.0876192
-0.0954944
-0.083767
-0.0822667
-0.0873811
-0.0778543
-0.0794563
-0.0809187
-0.0769806
-0.0851591
-0.0827577
-0.0713024
-0.0806609
-0.0809128
-0.0793476
-0.0848823
-0.0799319
-0.0754942
-0.089506
-0.0867943
-0.0856267
-0.0965762
-0.0872912
-0.0817149
-0.0857417
-0.0733533
-0.080808
-0.0808694
-0.0720207
-0.0787137
-0.0812958
-0.0741139
-0.0773937
-0.0749603
-0.0722215
-0.0816892
-0.0759558
-0.071201
-0.0839404
-0.0775069
-0.0702386
-0.0748008
-0.074666
-0.0832001
-0.0903335
-0.0723862
-0.0734468
-0.0835299
-0.0814881
-0.0796224
-0.0810503
-0.074935
-0.0894378
-0.083575
-0.0719495
-0.0846424
-0.0868447
-0.0809007
-0.0821407
-0.0767618
-0.0738724
-0.0842631
-0.0749097
-0.0707022
-0.0804403
-0.0727228
-0.071583
-0.0785839
-0.0757994
-0.0830948
-0.0888999
-0.0723567
-0.0780014
-0.0820386
-0.079261
-0.0868617
-0.0807928
-0.0771928
-0.0849628
-0.072273
-0.0653673
-0.0764186
-0.0747401
-0.0726044
-0.079955
-0.0752058
-0.0743889
-0.0821803
-0.0722133
-0.0696347
-0.0805863
-0.0780297
-0.0796962
-0.0832894
-0.0715972
-0.077624
-0.0759997
-0.064604
-0.075731
-0.0740838
-0.0691611
-0.0726061
-0.0675989
-0.0731578
-0.0880271
-0.0780322
-0.0734847
-0.0844112
-0.0783612
-0.0814579
-0.0853327
-0.0773523
-0.0848881
-0.0874368
-0.0702993
-0.0737955
-0.0810876
-0.0739145
-0.0742359
-0.0672314
-0.0632705
-0.0744423
-0.0685963
-0.0703399
-0.0871026
-0.0831792
-0.0758763
-0.0804148
-0.0766514
-0.0809835
-0.0857326
-0.0712461
-0.0724283
-0.085848
-0.0799768
-0.0784753
-0.0784337
-0.0723647
-0.0836152
-0.0855294
-0.076164
-0.0828248
-0.0849279
-0.0818267
-0.0878764
-0.0802409
-0.0839481
-0.0942957
-0.0862595
-0.0818721
-0.0882866
-0.0790043
-0.0779374
-0.0839858
-0.0757098
-0.0813858
-0.0864779
-0.0736464
-0.0828938
-0.0890407
-0.0814723
-0.0867142
-0.0842741
-0.0845522
-0.0927256
-0.0854235
-0.0806164
-0.0915903
-0.087622
-0.0805518
-0.0855781
-0.0783008
-0.0822817
-0.0869882
-0.0751825
-0.0797253
-0.093813
-0.0870273
-0.0898576
-0.0902812
-0.0805356
-0.0913095
-0.0901621
-0.083427
-0.0925213
-0.0922748
-0.0813951
-0.0862493
-0.0863856
-0.0858412
-0.0916667
-0.0830894
-0.079462
-0.0914643
-0.0889498
-0.0881193
-0.0908411
-0.0836696
-0.0864857
-0.0925209
-0.0815957
-0.0882941
-0.0941957
-0.0833321
-0.0878942
-0.0846185
-0.0790359
-0.0902104
-0.0814522
-0.0743947
-0.0863794
-0.0827663
-0.078929
-0.0861427
-0.0801515
-0.0827812
-0.0906448
-0.0783202
-0.0827236
-0.0959788
-0.0853789
-0.0843409
-0.0847295
-0.0801075
-0.0892044
-0.0875954
-0.074991
-0.0842184
-0.0852222
-0.0831643
-0.0873226
-0.0829309
-0.0830348
-0.0950378
-0.0860196
-0.0794524
-0.090842
-0.0858956
-0.0885013
-0.0903964
-0.0798296
-0.0900854
-0.0936637
-0.080045
-0.0817943
-0.0865503
-0.0823917
-0.0862739
-0.0826626
-0.0772192
-0.0905946
-0.0876804
-0.0796726
-0.0903677
-0.0905099
-0.0856054
-0.0922064
-0.0854015
-0.0867799
-0.0948003
-0.081657
-0.0787208
-0.0877434
-0.0776294
-0.082223
-0.0840764
-0.0786782
-0.0888979
-0.0888272
-0.0775537
-0.090714
-0.089068
-0.0847319
-0.0911942
-0.0860744
-0.0895267
-0.099307
-0.080848
-0.0770409
-0.0879176
-0.0864393
-0.0815813
-0.0869494
-0.0830875
-0.0907829
-0.0935041
-0.0819922
-0.091392
-0.0945023
-0.0873489
-0.0901509
-0.085804
-0.0851001
-0.096276
-0.0889058
-0.0809478
-0.0911531
-0.0882506
-0.084479
-0.087267
-0.0785486
-0.0842754
-0.0913525
-0.0789908
-0.0804148
-0.0887046
-0.0834766
-0.0844016
-0.0847199
-0.0821455
-0.0938878
-0.0911554
-0.0762129
-0.0855058
-0.08921
-0.0843958
-0.0865618
-0.0798141
-0.0800147
-0.090772
-0.0807725
-0.0812255
-0.0920889
-0.0870789
-0.0855571
-0.0835981
-0.0768412
-0.084576
-0.0948399
-0.085035
-0.0894852
-0.0911497
-0.0840016
-0.0873231
-0.0844406
-0.0771762
-0.0912523
-0.0851264
-0.0768183
-0.0880333
-0.0861863
-0.0845476
-0.0890223
-0.0839905
-0.0862658
-0.0967992
-0.0844193
-0.0846035
-0.0902602
-0.0828185
-0.0859747
-0.0862577
-0.0807074
-0.0861718
-0.0902777
-0.0785666
-0.0878916
-0.088746
-0.0829539
-0.0914234
-0.0864478
-0.0866968
-0.0926307
-0.0818908
-0.082904
-0.0968538
-0.0918122
-0.0908265
-0.0904402
-0.0796886
-0.0867626
-0.0901689
-0.0768714
-0.0820717
-0.0894902
-0.0823477
-0.0875885
-0.0879704
-0.0825457
-0.0922216
-0.0860399
-0.0776819
-0.0917063
-0.0926147
-0.088009
-0.0924702
-0.0853253
-0.0866489
-0.0923383
-0.0783405
-0.0798848
-0.0882081
-0.0787529
-0.0841402
-0.0865877
-0.0806617
-0.091548
-0.0915921
-0.0761125
-0.0854695
-0.079274
-0.0813041
-0.0924767
-0.0838734
-0.0841708
-0.0929809
-0.0808009
-0.0811743
-0.0907101
-0.0856372
-0.0844875
-0.0860737
-0.0813275
-0.0911404
-0.0944892
-0.0773993
-0.0824494
-0.0891217
-0.080685
-0.084645
-0.0839912
-0.0807062
-0.0903816
-0.0841443
-0.0754365
-0.08957
-0.093734
-0.0835613
-0.0880088
-0.0728507
-0.0831226
-0.0863678
-0.0742523
-0.0758566
-0.0857462
-0.0808777
-0.0823959
-0.0828079
-0.0769064
-0.0909142
-0.0884965
-0.0745486
-0.0815373
-0.0832919
-0.0786443
-0.0828198
-0.0734889
-0.0738347
-0.0849208
-0.0806007
-0.0820343
-0.0914559
-0.0863517
-0.0872381
-0.0845965
-0.079456
-0.0886077
-0.0918986
-0.0796165
-0.0818164
-0.0820424
-0.0792115
-0.0831904
-0.083501
-0.0748559
-0.0861304
-0.0816375
-0.0738802
-0.0871224
-0.0878419
-0.0844023
-0.0888358
-0.0823649
-0.0862849
-0.0940856
-0.0855527
-0.0872168
-0.0970726
-0.0891909
-0.0906399
-0.0863163
-0.0804394
-0.0883685
-0.0854889
-0.0731731
-0.090393
-0.0920977
-0.0842726
-0.0838507
-0.0844923
-0.0826865
-0.0928481
-0.0845883
-0.0855822
-0.0984891
-0.0933539
-0.0911762
-0.0903067
-0.080872
-0.0902622
-0.0934952
-0.0789213
-0.0848706
-0.0950501
-0.0857254
-0.0897229
-0.0889979
-0.0868928
-0.0964661
-0.0914177
-0.0837109
-0.0969615
-0.0920367
-0.0881302
-0.0920495
-0.0851659
-0.0859339
-0.0926899
-0.0806398
-0.0795637
-0.0883852
-0.0812907
-0.0847703
-0.0866109
-0.0807588
-0.0915089
-0.0902674
-0.0763838
-0.0890348
-0.0906895
-0.087287
-0.0934675
-0.0870817
-0.0866242
-0.0967612
-0.0871618
-0.0860159
-0.090508
-0.0859418
-0.0851999
-0.0892024
-0.0820738
-0.0886023
-0.0915771
-0.0788117
-0.0879101
-0.0931431
-0.0885246
-0.0925405
-0.09438
-0.0919149
-0.0972867
-0.088683
-0.0810268
-0.0886855
-0.0877165
-0.0750431
-0.0787479
-0.0718518
-0.0796676
-0.0870786
-0.0705117
-0.0744952
-0.0832824
-0.0733751
-0.0743851
-0.07349
-0.0643628
-0.0747336
-0.0651302
-0.0465791
-0.0499607
-0.0540654
-0.0481857
-0.0555683
-0.0510552
-0.0514462
-0.0615581
-0.0555193
-0.0655336
-0.0806105
-0.0785136
-0.0778075
-0.0862817
-0.0843594
-0.103526
-0.112943
-0.100186
-0.104333
-0.109019
-0.102607
-0.101642
-0.0988455
-0.0910205
-0.0983905
-0.0924315
-0.0813261
-0.0923925
-0.0887793
-0.0885392
-0.0954292
-0.0883208
-0.0927844
-0.10295
-0.0904667
-0.0906096
-0.0993622
-0.0878423
-0.0862827
-0.0874517
-0.0774497
-0.0878408
-0.0851755
-0.0785571
-0.0875691
-0.0902238
-0.0843669
-0.0895514
-0.0863111
-0.0876505
-0.102837
-0.0925591
-0.0950337
-0.101195
-0.0889675
-0.0882972
-0.095043
-0.0880271
-0.0942315
-0.0921897
-0.079442
-0.0821381
-0.0899774
-0.0847721
-0.0893242
-0.0864926
-0.082108
-0.0950757
-0.0899616
-0.0859071
-0.0969808
-0.0972237
-0.0920167
-0.0940918
-0.0878712
-0.0923826
-0.0969028
-0.083003
-0.0855053
-0.092123
-0.0851908
-0.0874613
-0.0833943
-0.0771176
-0.0875289
-0.0876016
-0.0746161
-0.0876582
-0.0926628
-0.086829
-0.0959151
-0.0889477
-0.0903355
-0.0995964
-0.0892796
-0.0841144
-0.09026
-0.082302
-0.0816674
-0.0842846
-0.0790753
-0.0878174
-0.091317
-0.0764785
-0.0828232
-0.0917155
-0.0864171
-0.0930869
-0.0928197
-0.0897755
-0.0981407
-0.0882716
-0.0791681
-0.090249
-0.0858478
-0.0830742
-0.0884341
-0.0807015
-0.0852604
-0.0918349
-0.079919
-0.0835806
-0.0883632
-0.0814189
-0.0835194
-0.0868163
-0.0784652
-0.0931962
-0.091307
-0.0790546
-0.0893265
-0.0931811
-0.0873704
-0.0927579
-0.0854635
-0.0896998
-0.0982347
-0.0878791
-0.0847743
-0.0896037
-0.0838154
-0.0858165
-0.0884049
-0.0822025
-0.091582
-0.094123
-0.079594
-0.0859869
-0.0936321
-0.0896407
-0.0902281
-0.0852254
-0.0822217
-0.0870841
-0.08026
-0.0745077
-0.0855953
-0.0884503
-0.08321
-0.0829545
-0.0787101
-0.0833165
-0.092545
-0.0840133
-0.0860341
-0.0920813
-0.0851251
-0.0876554
-0.0871163
-0.0768908
-0.0882414
-0.0862902
-0.0759712
-0.0854725
-0.0881771
-0.0815896
-0.0864783
-0.081157
-0.0813418
-0.0946504
-0.0886563
-0.0858118
-0.0934247
-0.0799064
-0.079343
-0.0819025
-0.0735072
-0.0798239
-0.0819061
-0.0706869
-0.0771279
-0.0898258
-0.0842417
-0.0866464
-0.0810082
-0.0780452
-0.0896044
-0.0827255
-0.0798246
-0.0956185
-0.0932297
-0.0864228
-0.0883516
-0.0797957
-0.0844494
-0.0898317
-0.0739845
-0.0717644
-0.081776
-0.0748081
-0.0764681
-0.0822927
-0.0785932
-0.0896629
-0.0876498
-0.0796644
-0.0884949
-0.0913494
-0.0857853
-0.0906749
-0.0827269
-0.0832601
-0.0911421
-0.0806098
-0.0778256
-0.0788218
-0.0716736
-0.0732458
-0.0844761
-0.0773881
-0.0881419
-0.089265
-0.075456
-0.0819448
-0.0856954
-0.0811187
-0.0886405
-0.0778669
-0.0749446
-0.0852002
-0.0771667
-0.0737172
-0.0842173
-0.0817848
-0.0753113
-0.0788243
-0.0730569
-0.082258
-0.0892937
-0.0798313
-0.0832701
-0.086946
-0.0815666
-0.0837561
-0.0895445
-0.082471
-0.0865597
-0.0844846
-0.075833
-0.0853925
-0.0865969
-0.0780564
-0.0829466
-0.077972
-0.0828537
-0.0968088
-0.0895384
-0.0868146
-0.0973937
-0.0889158
-0.0910234
-0.0935245
-0.086444
-0.0978346
-0.0968987
-0.0826
-0.0922365
-0.0974395
-0.0873705
-0.0850092
-0.0805001
-0.0796188
-0.0907706
-0.0840825
-0.0826847
-0.0964904
-0.0940144
-0.0946744
-0.0959713
-0.0848927
-0.0921409
-0.09913
-0.0855527
-0.0855503
-0.0914902
-0.0874995
-0.0897184
-0.0887704
-0.0782232
-0.0929305
-0.0910934
-0.080276
-0.089664
-0.0944184
-0.0882015
-0.0911922
-0.0856911
-0.0880213
-0.102749
-0.100041
-0.0925775
-0.103239
-0.0909319
-0.089375
-0.0875466
-0.0804739
-0.086901
-0.0910059
-0.080018
-0.0875018
-0.0926573
-0.0874961
-0.0888515
-0.086607
-0.0850667
-0.0962143
-0.0910718
-0.0858258
-0.098637
-0.0977175
-0.094411
-0.0928916
-0.082602
-0.0887973
-0.0916394
-0.0790475
-0.0876038
-0.0993075
-0.0880057
-0.0896539
-0.0894695
-0.0839488
-0.0947745
-0.0935754
-0.0827923
-0.0987087
-0.0990129
-0.0890199
-0.0932107
-0.0876833
-0.0923621
-0.101362
-0.0847167
-0.0818136
-0.0924578
-0.083221
-0.0842995
-0.0927416
-0.0887767
-0.0970403
-0.0996859
-0.0843089
-0.08994
-0.0950477
-0.0907945
-0.0925664
-0.0873866
-0.0819874
-0.0931306
-0.0869338
-0.0809397
-0.088756
-0.0881932
-0.0849203
-0.0908844
-0.0842839
-0.0907262
-0.0985212
-0.0859149
-0.0875299
-0.0960971
-0.0895845
-0.0927618
-0.092541
-0.0833469
-0.0922906
-0.0922296
-0.0790811
-0.0888255
-0.0864797
-0.0815107
-0.0907014
-0.0851478
-0.0865751
-0.0968477
-0.0836646
-0.0885219
-0.0991483
-0.0893823
-0.0874961
-0.0957084
-0.0860518
-0.0943516
-0.0908377
-0.081072
-0.08555
-0.0945099
-0.087465
-0.0849532
-0.0839381
-0.0868801
-0.100219
-0.0932677
-0.0857256
-0.0960467
-0.0936407
-0.0875014
-0.0917488
-0.0859377
-0.0978269
-0.101675
-0.0890542
-0.0870277
-0.0921582
-0.082735
-0.0837413
-0.083484
-0.0748167
-0.0839783
-0.0866553
-0.0780417
-0.0878138
-0.0971179
-0.0941731
-0.0920635
-0.0884838
-0.0894598
-0.102904
-0.091484
-0.0882018
-0.09881
-0.0907151
-0.0913641
-0.0930466
-0.0805984
-0.0889341
-0.0932607
-0.0860066
-0.0916314
-0.0981434
-0.091107
-0.0960112
-0.0886609
-0.0810443
-0.0958776
-0.0888727
-0.0830828
-0.0939085
-0.0887594
-0.0826538
-0.0868843
-0.0805628
-0.0849988
-0.0920988
-0.0802647
-0.0826966
-0.0938903
-0.0903567
-0.0919919
-0.091598
-0.0860578
-0.0942369
-0.092052
-0.0847734
-0.094573
-0.0972271
-0.0940065
-0.0900965
-0.0833909
-0.0844154
-0.0956316
-0.0801744
-0.0774527
-0.0887424
-0.0832187
-0.0876031
-0.0908556
-0.083516
-0.0909875
-0.0934545
-0.0834122
-0.0895836
-0.0951475
-0.0882198
-0.0924399
-0.0867544
-0.0825793
-0.0937073
-0.0866485
-0.080911
-0.0942409
-0.0880488
-0.086477
-0.0906903
-0.0810587
-0.0874413
-0.0950935
-0.083346
-0.0858363
-0.0931929
-0.0866492
-0.088613
-0.0885825
-0.0830696
-0.0950659
-0.0933192
-0.0850759
-0.0949026
-0.0937068
-0.0854106
-0.0893998
-0.0821685
-0.0832417
-0.0962292
-0.0849355
-0.0843743
-0.0898452
-0.084293
-0.0860125
-0.0942349
-0.0883041
-0.0943113
-0.0967185
-0.0806885
-0.0868062
-0.089322
-0.0778032
-0.0820389
-0.0779183
-0.0781849
-0.0924071
-0.0898947
-0.0829097
-0.0966435
-0.0873086
-0.0861706
-0.0923666
-0.085325
-0.0903542
-0.0929585
-0.0787978
-0.0813463
-0.0876656
-0.081412
-0.0824044
-0.0814373
-0.0759518
-0.0838651
-0.0817566
-0.0758489
-0.0877025
-0.0886567
-0.0837851
-0.0884734
-0.0832165
-0.0872383
-0.0969969
-0.0887668
-0.0825661
-0.0894181
-0.0873375
-0.0870922
-0.0854843
-0.0743627
-0.0860052
-0.0883526
-0.0775351
-0.0845989
-0.0876665
-0.0832568
-0.0875081
-0.0877524
-0.0842607
-0.095977
-0.0902111
-0.0832788
-0.0958161
-0.0931385
-0.0868344
-0.0893129
-0.0822616
-0.0826373
-0.0885934
-0.0766198
-0.0810265
-0.0893084
-0.0852451
-0.091366
-0.0951622
-0.0897044
-0.0974344
-0.090764
-0.0847922
-0.0928724
-0.0937767
-0.0856299
-0.091817
-0.0851346
-0.0898051
-0.0995345
-0.0872683
-0.0779282
-0.0917609
-0.0880522
-0.087842
-0.0932038
-0.0870915
-0.0930692
-0.0967567
-0.084152
-0.0911618
-0.0974811
-0.0914807
-0.0957473
-0.0896566
-0.0879069
-0.0966169
-0.0912976
-0.0844181
-0.0934588
-0.0847386
-0.0860685
-0.0924293
-0.0853684
-0.0891906
-0.0985982
-0.0829122
-0.0871768
-0.0954212
-0.0903484
-0.0949976
-0.0939571
-0.0878272
-0.0984737
-0.0945416
-0.0834058
-0.0887124
-0.0850667
-0.0795449
-0.0879306
-0.085923
-0.0880422
-0.0977421
-0.0857401
-0.0811606
-0.0907738
-0.0875372
-0.0873621
-0.0956933
-0.0888906
-0.0937034
-0.0978308
-0.0852393
-0.0913947
-0.0923657
-0.083575
-0.0854566
-0.082131
-0.0786233
-0.0932268
-0.0825543
-0.0773278
-0.0884715
-0.0869089
-0.0845728
-0.0871157
-0.0800455
-0.0856141
-0.0920731
-0.0703749
-0.0669975
-0.075204
-0.0666221
-0.0637995
-0.0570223
-0.0483205
-0.0589831
-0.0526893
-0.0420899
-0.0536225
-0.0592271
-0.0537302
-0.0660144
-0.0641817
-0.0708496
-0.0781198
-0.0672822
-0.0741634
-0.0904568
-0.0837925
-0.0836525
-0.0929531
-0.0929602
-0.108608
-0.107875
-0.0952971
-0.104298
-0.109421
-0.10294
-0.102136
-0.0987759
-0.0942103
-0.104507
-0.0943814
-0.0873081
-0.0984545
-0.0940497
-0.0926477
-0.0997725
-0.0855932
-0.0908081
-0.0918183
-0.0845082
-0.0903887
-0.100557
-0.0934664
-0.0947718
-0.0907579
-0.0830844
-0.093763
-0.0932075
-0.0839448
-0.0944031
-0.0899579
-0.0844863
-0.0906687
-0.0855111
-0.0836278
-0.092568
-0.0816951
-0.078837
-0.0911104
-0.0891186
-0.0909136
-0.0930834
-0.0853007
-0.0916829
-0.10089
-0.0916258
-0.0986722
-0.101246
-0.0888753
-0.0896865
-0.0862915
-0.0863683
-0.0977577
-0.0851794
-0.0802594
-0.0914082
-0.0886613
-0.0877934
-0.0957001
-0.088212
-0.093473
-0.0981343
-0.0852126
-0.0888509
-0.0980813
-0.0909818
-0.0922151
-0.0884644
-0.0798195
-0.0920137
-0.0891966
-0.0811708
-0.0862547
-0.0840597
-0.0786136
-0.0840939
-0.0832116
-0.0884771
-0.100087
-0.0891792
-0.0860818
-0.0937349
-0.0879159
-0.0934459
-0.0955849
-0.0855124
-0.0909292
-0.0916762
-0.0819259
-0.0890174
-0.0880429
-0.0815823
-0.087608
-0.0838784
-0.0814976
-0.0951796
-0.0854487
-0.0781822
-0.0893332
-0.0875443
-0.0867107
-0.0932989
-0.0875022
-0.0928094
-0.0962215
-0.0859886
-0.0897846
-0.0937767
-0.0866687
-0.0893299
-0.0864424
-0.0802263
-0.0942359
-0.0913573
-0.0797686
-0.0884778
-0.0890332
-0.0817126
-0.0865907
-0.0835838
-0.0875982
-0.0966777
-0.0857351
-0.0820985
-0.090231
-0.082185
-0.07985
-0.081958
-0.0782962
-0.0872472
-0.0864339
-0.0787981
-0.0859345
-0.0955115
-0.0928613
-0.0893014
-0.0871372
-0.0847991
-0.0982734
-0.08779
-0.0781772
-0.08723
-0.0841994
-0.0816001
-0.0833697
-0.0750647
-0.0805179
-0.0868807
-0.0780369
-0.0829905
-0.0912441
-0.084128
-0.0868169
-0.0905927
-0.0805055
-0.0934303
-0.0904902
-0.0829389
-0.0897731
-0.0849789
-0.080384
-0.0852598
-0.0811285
-0.0780918
-0.0925405
-0.0774635
-0.0755877
-0.0856995
-0.0854267
-0.0852266
-0.0856036
-0.0786527
-0.0798378
-0.0881642
-0.0797431
-0.0821243
-0.0866526
-0.0797131
-0.0824674
-0.0812688
-0.0789735
-0.0950398
-0.088004
-0.0785451
-0.0875995
-0.0845273
-0.0867624
-0.0892133
-0.0765002
-0.0762994
-0.0826126
-0.0684584
-0.0758694
-0.0897844
-0.0821604
-0.0847769
-0.0820159
-0.0728579
-0.0826976
-0.0796961
-0.0705826
-0.0775416
-0.0819977
-0.0794288
-0.084302
-0.0822466
-0.0819588
-0.0911765
-0.0813654
-0.0795504
-0.0864412
-0.0832418
-0.0833767
-0.0835226
-0.0765828
-0.0845018
-0.0880678
-0.0754618
-0.0799876
-0.0844671
-0.0753387
-0.079907
-0.076474
-0.0742216
-0.0872797
-0.0814919
-0.075887
-0.0820427
-0.0789291
-0.0780987
-0.0901306
-0.0819096
-0.0837547
-0.0900184
-0.0805539
-0.0799224
-0.0827986
-0.0777669
-0.0804109
-0.0804131
-0.0773846
-0.087839
-0.0862762
-0.0760006
-0.0877841
-0.0899908
-0.081948
-0.0923184
-0.086439
-0.0871002
-0.0953867
-0.0809417
-0.0791876
-0.0896572
-0.0876315
-0.0826013
-0.086716
-0.0797875
-0.0915403
-0.0898459
-0.0778553
-0.0908255
-0.0952563
-0.093339
-0.0927212
-0.088754
-0.0866447
-0.0976942
-0.0903546
-0.0869038
-0.0968606
-0.0930057
-0.0902099
-0.0905228
-0.0790942
-0.0826851
-0.0888989
-0.0816246
-0.0856504
-0.0915877
-0.0839487
-0.0866201
-0.0856855
-0.0852867
-0.0960555
-0.0973314
-0.0870942
-0.0983018
-0.0941592
-0.0871426
-0.0901101
-0.0842069
-0.0844172
-0.0894722
-0.0804936
-0.0812005
-0.0915486
-0.0870969
-0.0863016
-0.0924849
-0.0838681
-0.0926545
-0.0957995
-0.0821247
-0.0926391
-0.0970211
-0.0901154
-0.0928112
-0.0910099
-0.0872438
-0.0982845
-0.0876932
-0.0826969
-0.0964545
-0.0908585
-0.0880973
-0.093391
-0.0885551
-0.0904918
-0.0953556
-0.0825717
-0.0907549
-0.098453
-0.0880069
-0.0877056
-0.0869343
-0.0811654
-0.0940483
-0.0895631
-0.0793644
-0.0885961
-0.0926041
-0.087314
-0.0931783
-0.0872515
-0.0863109
-0.0963342
-0.0858224
-0.0868903
-0.0972167
-0.0914392
-0.0902788
-0.0899307
-0.0822259
-0.0910457
-0.0929302
-0.0759714
-0.0804298
-0.0853631
-0.078469
-0.0875784
-0.086243
-0.0831203
-0.094152
-0.0874093
-0.0801674
-0.0927256
-0.0911887
-0.0884622
-0.0965366
-0.0860936
-0.087376
-0.0925896
-0.0797966
-0.083237
-0.0885959
-0.081943
-0.0869688
-0.0861608
-0.079922
-0.0918189
-0.0882727
-0.0810127
-0.0911682
-0.091527
-0.0877635
-0.0957245
-0.0879744
-0.0896829
-0.0963742
-0.0848294
-0.0789584
-0.0892629
-0.0885599
-0.0864343
-0.0834548
-0.0787622
-0.0876152
-0.0914391
-0.0781968
-0.0874991
-0.0902834
-0.0834013
-0.0899241
-0.0879548
-0.0854757
-0.0964981
-0.0887041
-0.081217
-0.0930754
-0.0901978
-0.0881062
-0.092061
-0.0847112
-0.0881392
-0.0929026
-0.0816008
-0.0848982
-0.0935178
-0.0870584
-0.0865113
-0.0856665
-0.0812581
-0.0972687
-0.0933615
-0.0801407
-0.0903196
-0.0906293
-0.0840926
-0.0848502
-0.0782769
-0.0800346
-0.0893937
-0.0799163
-0.0825064
-0.0959888
-0.0900605
-0.0903698
-0.0899587
-0.0839785
-0.0928646
-0.0972279
-0.0850024
-0.0888483
-0.0897838
-0.082914
-0.0844499
-0.0806469
-0.0758115
-0.0896243
-0.0817793
-0.075347
-0.0867055
-0.0888874
-0.0868307
-0.0907658
-0.0849095
-0.086983
-0.094396
-0.0876858
-0.0910403
-0.0986203
-0.0875547
-0.0880345
-0.087153
-0.0802753
-0.0915993
-0.0836313
-0.0751498
-0.0853521
-0.0832126
-0.076803
-0.0867569
-0.0812606
-0.0830676
-0.0913944
-0.0823846
-0.0805359
-0.0963959
-0.0904426
-0.0940867
-0.089144
-0.0799766
-0.0918956
-0.0933982
-0.0844899
-0.0882793
-0.0866659
-0.0798085
-0.0907574
-0.0933208
-0.0883293
-0.0864322
-0.0785364
-0.0689593
-0.0824175
-0.0861591
-0.0890374
-0.0929527
-0.0821901
-0.0828092
-0.0879716
-0.0762532
-0.0796647
-0.0851052
-0.0804335
-0.0847402
-0.0844221
-0.0793752
-0.0926125
-0.0895837
-0.0785419
-0.0895671
-0.0897788
-0.0871963
-0.0916464
-0.0813274
-0.0831836
-0.0900778
-0.073536
-0.0753485
-0.0834859
-0.0775079
-0.0788868
-0.0827124
-0.0762581
-0.0842098
-0.0856518
-0.075861
-0.0863936
-0.0861314
-0.0825867
-0.0870485
-0.0862784
-0.0824309
-0.0922238
-0.0842774
-0.0751555
-0.0877132
-0.0841147
-0.0775281
-0.0814235
-0.0742549
-0.0826194
-0.0890311
-0.069505
-0.0729734
-0.0844741
-0.0755967
-0.0812302
-0.0814754
-0.0764597
-0.0908099
-0.0861205
-0.0749186
-0.0845667
-0.0847295
-0.0787744
-0.0784205
-0.0710789
-0.0740846
-0.0833459
-0.0748724
-0.0748461
-0.0859608
-0.0799583
-0.082472
-0.0851659
-0.0804248
-0.0913092
-0.0926905
-0.0820175
-0.0908933
-0.0922821
-0.0788504
-0.0833249
-0.0785214
-0.0757181
-0.0878007
-0.081304
-0.0752375
-0.0864945
-0.0828561
-0.0815047
-0.08688
-0.0797057
-0.0853155
-0.0930764
-0.0833429
-0.0868681
-0.091629
-0.0816462
-0.0863063
-0.084515
-0.0795306
-0.0900936
-0.0856436
-0.071582
-0.0818526
-0.0819666
-0.0825391
-0.084881
-0.0775172
-0.0840722
-0.0933005
-0.0852957
-0.0855307
-0.0935224
-0.0828957
-0.0832442
-0.0850063
-0.0773788
-0.0862956
-0.0876162
-0.0714613
-0.0803801
-0.08472
-0.0802015
-0.0846886
-0.0860519
-0.087393
-0.0975649
-0.0860182
-0.0800073
-0.0918633
-0.0906852
-0.088669
-0.0881241
-0.0809444
-0.0848995
-0.0916094
-0.080469
-0.0764509
-0.0840718
-0.0774839
-0.0841706
-0.0835427
-0.0805899
-0.0914654
-0.090355
-0.0796339
-0.0883268
-0.0883922
-0.0830925
-0.09013
-0.0805442
-0.0794487
-0.0886437
