-0.0246525
-0.00203725
-0.0275543
-0.0443552
-0.0677275
-0.0771607
-0.0844742
-0.082333
-0.0817744
-0.0775987
-0.0768858
-0.0748653
-0.0769329
-0.0776166
-0.0794749
-0.0777098
-0.0757949
-0.0714025
-0.0693151
-0.0680198
-0.0701295
-0.0719494
-0.0748946
-0.0768557
-0.0802264
-0.0813534
-0.0801828
-0.0740549
-0.0660291
-0.0560239
-0.0478815
-0.0417194
-0.0405827
-0.0430011
-0.05052
-0.061094
-0.0738687
-0.08334
-0.0884463
-0.0887007
-0.0874228
-0.0839258
-0.080046
-0.0759498
-0.0741826
-0.073998
-0.0762439
-0.0780663
-0.0787257
-0.0770948
-0.0758154
-0.0751988
-0.075824
-0.0757404
-0.0755878
-0.0748021
-0.0744597
-0.0738369
-0.073864
-0.0733326
-0.0726373
-0.0712865
-0.0709213
-0.0713081
-0.0732128
-0.0748307
-0.0755188
-0.073845
-0.0717078
-0.07053
-0.0728967
-0.0767637
-0.079324
-0.0771808
-0.0721821
-0.0670095
-0.0652828
-0.0671015
-0.0714959
-0.0746235
-0.07525
-0.0735683
-0.0719852
-0.0709276
-0.071022
-0.0710148
-0.0712019
-0.0716909
-0.0730409
-0.0730654
-0.0714531
-0.0691377
-0.0680403
-0.0678078
-0.0684598
-0.0690874
-0.0698356
-0.0698098
-0.0688807
-0.0668292
-0.0655261
-0.0656636
-0.0676159
-0.069536
-0.0702129
-0.0687692
-0.0670295
-0.0659194
-0.0663237
-0.0673611
-0.0688071
-0.0693198
-0.0693354
-0.0687567
-0.0681071
-0.0671793
-0.0669806
-0.0671278
-0.0675365
-0.067963
-0.0692499
-0.0710143
-0.0725414
-0.0724009
-0.0711179
-0.0697398
-0.069888
-0.0715088
-0.0740029
-0.0756583
-0.0760388
-0.07534
-0.0748434
-0.0750034
-0.0758841
-0.0760284
-0.0751394
-0.0736986
-0.0729491
-0.0726161
-0.0731219
-0.0738871
-0.0747112
-0.0748222
-0.0750565
-0.0751262
-0.0750599
-0.0742753
-0.0734752
-0.0723761
-0.0716
-0.0716648
-0.0734389
-0.0757244
-0.0775132
-0.0776692
-0.0765767
-0.074877
-0.0739636
-0.0739784
-0.0745637
-0.0742336
-0.0732984
-0.0729455
-0.0738885
-0.0748114
-0.0750018
-0.0741537
-0.0731223
-0.0723019
-0.0721314
-0.072575
-0.0738054
-0.074751
-0.0747592
-0.073761
-0.0733461
-0.074196
-0.0760254
-0.0768892
-0.0759636
-0.0736746
-0.0725407
-0.0733993
-0.0757319
-0.0777517
-0.0785329
-0.0769656
-0.074736
-0.0737703
-0.0749112
-0.0766521
-0.0783101
-0.078529
-0.0769423
-0.0738405
-0.0712444
-0.0706762
-0.0723149
-0.073738
-0.073445
-0.071979
-0.0713555
-0.072158
-0.0738607
-0.0752601
-0.0760245
-0.0760109
-0.0755726
-0.0751313
-0.075471
-0.0761056
-0.0763081
-0.075388
-0.0740339
-0.0726077
-0.0721968
-0.0732238
-0.0753806
-0.0765359
-0.0761482
-0.0751147
-0.0752574
-0.0764401
-0.0772551
-0.0756237
-0.072415
-0.0698703
-0.0697803
-0.0713038
-0.0733142
-0.074153
-0.0735886
-0.0722862
-0.071675
-0.0719391
-0.0727508
-0.0733112
-0.0739038
-0.0747434
-0.0758891
-0.0768987
-0.0779933
-0.078657
-0.0783099
-0.0766849
-0.0750396
-0.0743962
-0.0753233
-0.0768451
-0.0779757
-0.0781683
-0.0782225
-0.0783594
-0.0786856
-0.0787147
-0.0783389
-0.0770791
-0.0758394
-0.0756515
-0.077339
-0.0797643
-0.0812606
-0.08026
-0.0778872
-0.0758563
-0.0754702
-0.0761867
-0.0768779
-0.0762014
-0.0741868
-0.0709568
-0.0663841
-0.0600257
-0.0524823
-0.0459755
-0.0434747
-0.0465532
-0.0553602
-0.0683947
-0.0822177
-0.0920788
-0.0951961
-0.092486
-0.0880038
-0.0848092
-0.0838156
-0.0839826
-0.0838275
-0.0821823
-0.0802213
-0.0791006
-0.0789372
-0.0790245
-0.0795897
-0.0801528
-0.0805895
-0.0807797
-0.0813083
-0.0817762
-0.0818221
-0.080859
-0.0795888
-0.0787633
-0.0791366
-0.080089
-0.0807631
-0.0801484
-0.0782318
-0.0758454
-0.0747751
-0.0761177
-0.0792574
-0.0820162
-0.0828429
-0.0817925
-0.0800623
-0.0788296
-0.0792609
-0.0813261
-0.0835167
-0.0835766
-0.0813366
-0.0786289
-0.0776528
-0.0782235
-0.0787751
-0.0779679
-0.0765039
-0.0755283
-0.0762127
-0.0780558
-0.0796652
-0.0792586
-0.0775265
-0.0761125
-0.0761502
-0.0769855
-0.0780446
-0.078521
-0.0781206
-0.0769908
-0.0759045
-0.0753146
-0.0755147
-0.0762781
-0.077407
-0.0786629
-0.0795876
-0.0794099
-0.0783854
-0.0773192
-0.076671
-0.076076
-0.0754571
-0.0749932
-0.0749039
-0.074786
-0.0746407
-0.0747838
-0.0756421
-0.0769423
-0.0781355
-0.0783451
-0.0777143
-0.0770753
-0.0777336
-0.0795769
-0.0818852
-0.0839125
-0.0850922
-0.0847554
-0.0837773
-0.0832892
-0.0838471
-0.0850363
-0.0861682
-0.0859195
-0.0843744
-0.0825839
-0.0819705
-0.0827054
-0.084431
-0.0860581
-0.0866966
-0.0861791
-0.0851721
-0.0847587
-0.0855212
-0.086792
-0.0872369
-0.0865835
-0.0857228
-0.0855465
-0.086228
-0.0869259
-0.0865176
-0.0848167
-0.0833428
-0.0834545
-0.0851236
-0.0868372
-0.0874202
-0.0867508
-0.085738
-0.0847079
-0.0841287
-0.0842564
-0.0853839
-0.0867006
-0.0876466
-0.0876405
-0.0873292
-0.087235
-0.0872551
-0.0859761
-0.0837876
-0.0823499
-0.0833366
-0.0865285
-0.0899874
-0.0907991
-0.0882697
-0.0845765
-0.0824466
-0.082947
-0.0854409
-0.0880254
-0.0888461
-0.0876293
-0.0858669
-0.0849402
-0.0852093
-0.0858323
-0.0858038
-0.0849428
-0.0844364
-0.0852974
-0.0876466
-0.0899514
-0.0903581
-0.0880924
-0.0849643
-0.0832395
-0.0839737
-0.0861344
-0.0881881
-0.088729
-0.0879701
-0.08667
-0.0855693
-0.0850374
-0.0855832
-0.0862477
-0.086073
-0.0851788
-0.0848327
-0.0857615
-0.0876168
-0.0889343
-0.0888652
-0.0877531
-0.0863213
-0.0850124
-0.0842735
-0.0839682
-0.0834836
-0.0826979
-0.0823307
-0.0830382
-0.0848147
-0.0862254
-0.0859145
-0.0841392
-0.0828006
-0.0831295
-0.0853756
-0.0881103
-0.0898405
-0.0898242
-0.0890667
-0.0884676
-0.0884813
-0.0885037
-0.088394
-0.0884462
-0.0892929
-0.090697
-0.0921649
-0.0926773
-0.0915816
-0.0890513
-0.0867181
-0.0860357
-0.087174
-0.0891601
-0.0908926
-0.0913564
-0.090681
-0.0902149
-0.090616
-0.091128
-0.091144
-0.0903191
-0.0881554
-0.0849479
-0.0818825
-0.0791693
-0.0760211
-0.0715018
-0.0655876
-0.0595455
-0.0563944
-0.0583868
-0.0663351
-0.0785363
-0.0914083
-0.100609
-0.104414
-0.103716
-0.100943
-0.0980786
-0.0959971
-0.0939925
-0.0915628
-0.089211
-0.0884746
-0.0899913
-0.0926486
-0.0940341
-0.0929229
-0.0901667
-0.0877622
-0.0870058
-0.0877868
-0.0887745
-0.0888606
-0.088149
-0.0878106
-0.0887143
-0.090401
-0.0913381
-0.0908756
-0.0895336
-0.0878704
-0.0861165
-0.0852755
-0.0864943
-0.0895931
-0.0924565
-0.0935197
-0.0928983
-0.0919823
-0.0914386
-0.0910288
-0.0899644
-0.0883851
-0.0868463
-0.0862192
-0.0873844
-0.0903277
-0.092891
-0.0928461
-0.089978
-0.0862685
-0.0838477
-0.0834836
-0.0841968
-0.085081
-0.0859566
-0.0870646
-0.0877543
-0.0877756
-0.0872431
-0.0863626
-0.0853081
-0.0849864
-0.0857648
-0.0869946
-0.0875378
-0.0867334
-0.0849823
-0.083275
-0.0824172
-0.0828095
-0.0846388
-0.0869789
-0.087555
-0.0855755
-0.082602
-0.0811684
-0.0821087
-0.0842968
-0.0855564
-0.0854031
-0.0845095
-0.08393
-0.0842026
-0.0854801
-0.0872447
-0.0889605
-0.0902307
-0.0908873
-0.0902746
-0.0883998
-0.0862893
-0.0851431
-0.0851999
-0.0863866
-0.0886347
-0.0914324
-0.0935289
-0.0941343
-0.0936859
-0.0929667
-0.0921997
-0.0913062
-0.0903439
-0.0899574
-0.0902913
-0.0910218
-0.0915978
-0.0919815
-0.0918468
-0.0912204
-0.0900273
-0.088718
-0.0878907
-0.0882992
-0.0897304
-0.0912194
-0.0914672
-0.0904799
-0.0892185
-0.0887611
-0.0891394
-0.090017
-0.0908288
-0.0912641
-0.0911391
-0.0907884
-0.0910018
-0.0918704
-0.0921343
-0.0910616
-0.0894822
-0.08866
-0.0890755
-0.0904653
-0.0915679
-0.0915485
-0.0905365
-0.0891372
-0.0875419
-0.0863925
-0.086307
-0.0871583
-0.0881214
-0.0888115
-0.0892514
-0.0896572
-0.0899475
-0.0898843
-0.0891308
-0.0881677
-0.0873691
-0.0871042
-0.0873483
-0.0881609
-0.088773
-0.0888335
-0.0888368
-0.0900239
-0.0922361
-0.093808
-0.0933483
-0.0912251
-0.0886279
-0.0867142
-0.0861231
-0.0867736
-0.0875842
-0.0875679
-0.0870845
-0.0871925
-0.0882306
-0.0894214
-0.0896719
-0.088476
-0.0866913
-0.0856414
-0.0860079
-0.0871015
-0.0875697
-0.0867814
-0.0849839
-0.0830508
-0.0821036
-0.0828939
-0.0846455
-0.0857241
-0.0850555
-0.083427
-0.0824959
-0.0831595
-0.0847866
-0.0866924
-0.0882453
-0.088884
-0.0881979
-0.0869713
-0.0860402
-0.0859368
-0.0863489
-0.0865708
-0.0861111
-0.0859806
-0.0871803
-0.0889625
-0.089482
-0.0882319
-0.0863075
-0.0852686
-0.085686
-0.0871127
-0.0884592
-0.0887605
-0.0878763
-0.0865852
-0.0857115
-0.0858021
-0.086828
-0.0879064
-0.0879823
-0.0871542
-0.0860579
-0.0851484
-0.0848792
-0.0858837
-0.0877139
-0.0890756
-0.0888003
-0.0868486
-0.0831923
-0.077215
-0.0684514
-0.0588177
-0.0521609
-0.0518134
-0.0579232
-0.0682221
-0.0797411
-0.0898846
-0.0964928
-0.0988048
-0.0979278
-0.095732
-0.0932325
-0.090694
-0.0885448
-0.0872042
-0.0869607
-0.0877181
-0.0884616
-0.088133
-0.0869719
-0.0860639
-0.0860198
-0.086684
-0.0870135
-0.0863762
-0.0851492
-0.084635
-0.0853191
-0.0867647
-0.0877136
-0.0874163
-0.0859368
-0.0845373
-0.0841462
-0.0848102
-0.0858218
-0.0864035
-0.0858961
-0.0848676
-0.0841656
-0.0839834
-0.08398
-0.0840068
-0.0836832
-0.0829143
-0.0820148
-0.081896
-0.0835431
-0.0862674
-0.0874085
-0.0852709
-0.0813128
-0.0783094
-0.0777854
-0.0792716
-0.0813089
-0.0823057
-0.0821028
-0.0818294
-0.0824324
-0.0836618
-0.084386
-0.0836501
-0.0817843
-0.0799958
-0.0789831
-0.0789397
-0.0795327
-0.0799807
-0.0797414
-0.0790261
-0.078349
-0.0781136
-0.0782688
-0.078432
-0.0778206
-0.0764436
-0.0754606
-0.0761151
-0.0780743
-0.0799333
-0.0800201
-0.077866
-0.0746633
-0.0723935
-0.0726527
-0.0757879
-0.0798948
-0.0823173
-0.0824381
-0.0815612
-0.0810139
-0.080959
-0.0807944
-0.0800342
-0.0794291
-0.0797858
-0.0811045
-0.0829978
-0.0846809
-0.0847884
-0.0831129
-0.0813895
-0.0809927
-0.0820281
-0.083486
-0.0841643
-0.0833715
-0.0821226
-0.0817911
-0.0827622
-0.0836879
-0.0833456
-0.0819152
-0.0808892
-0.0811181
-0.0823924
-0.0834932
-0.0835719
-0.0824547
-0.0809361
-0.0798437
-0.0799133
-0.0815387
-0.0842736
-0.0866165
-0.0871131
-0.085402
-0.0822392
-0.0793307
-0.0780908
-0.0784395
-0.0791227
-0.0795124
-0.0796286
-0.0796456
-0.0798626
-0.0803612
-0.0804298
-0.0797319
-0.0792231
-0.079726
-0.0813026
-0.0827897
-0.0829989
-0.0819009
-0.0809219
-0.0805871
-0.0805872
-0.080617
-0.080589
-0.0801556
-0.0795404
-0.0792882
-0.0798756
-0.0809014
-0.0815786
-0.0812564
-0.0800925
-0.0784965
-0.0770805
-0.0764839
-0.0772976
-0.0791235
-0.0807604
-0.0812641
-0.0806712
-0.0795847
-0.0785736
-0.0774666
-0.0760488
-0.0750149
-0.0752902
-0.0769514
-0.0793181
-0.0809798
-0.0807585
-0.0788969
-0.0769217
-0.0760611
-0.0766062
-0.0780579
-0.0794245
-0.079367
-0.0774681
-0.0748409
-0.0732516
-0.0732434
-0.0742285
-0.0748536
-0.07479
-0.0746309
-0.0752657
-0.0763012
-0.0767539
-0.0758187
-0.0741879
-0.072833
-0.0723486
-0.0726912
-0.0734387
-0.0734772
-0.0721847
-0.0704568
-0.0698185
-0.0707842
-0.0730763
-0.0758249
-0.0775744
-0.0776897
-0.0772225
-0.0770624
-0.0769546
-0.076401
-0.0756185
-0.0752546
-0.0754602
-0.0755313
-0.0754686
-0.0765535
-0.078885
-0.0800717
-0.0785258
-0.0754606
-0.0734159
-0.0733723
-0.0744951
-0.0751636
-0.074907
-0.0740954
-0.073647
-0.0740627
-0.0752115
-0.0762472
-0.0767295
-0.0767737
-0.076514
-0.0755834
-0.0737561
-0.0706627
-0.0658673
-0.0596681
-0.0529524
-0.0472176
-0.0443365
-0.045531
-0.0505797
-0.0590934
-0.0698854
-0.0807505
-0.0889854
-0.0923727
-0.0897133
-0.0823699
-0.0745467
-0.0700156
-0.0695836
-0.0713942
-0.073246
-0.0736809
-0.0732467
-0.0733467
-0.0751953
-0.0783366
-0.0799668
-0.0775544
-0.0726619
-0.0688798
-0.0679024
-0.0689378
-0.0705986
-0.0717531
-0.0723962
-0.0728483
-0.0733937
-0.0738202
-0.0736351
-0.0723919
-0.0709238
-0.0707688
-0.0723234
-0.0743292
-0.0750144
-0.0735212
-0.0704601
-0.0675014
-0.0658103
-0.0656822
-0.0666609
-0.0680793
-0.0696228
-0.0711834
-0.0717027
-0.0706503
-0.0692586
-0.0686504
-0.0681703
-0.0670888
-0.0659607
-0.0657302
-0.0666511
-0.0684568
-0.0705202
-0.0715557
-0.0707676
-0.0684789
-0.0656249
-0.0632874
-0.0623265
-0.0625708
-0.0634066
-0.0642878
-0.0650635
-0.0659324
-0.0669258
-0.0669861
-0.0652239
-0.0622495
-0.0597694
-0.0590203
-0.0599489
-0.0612822
-0.0618011
-0.061682
-0.0621787
-0.0639775
-0.0659591
-0.0661339
-0.0639778
-0.0611091
-0.0596508
-0.0606109
-0.0633169
-0.0658102
-0.0668839
-0.0673061
-0.0683904
-0.0691495
-0.068256
-0.0662519
-0.0650882
-0.0652457
-0.066218
-0.067073
-0.0677384
-0.0689344
-0.0716742
-0.0746637
-0.0752515
-0.0723994
-0.0682057
-0.0651029
-0.0642411
-0.0648028
-0.0654543
-0.0660112
-0.0671394
-0.0690029
-0.0709787
-0.0720107
-0.07095
-0.0684361
-0.0661861
-0.065463
-0.0662867
-0.06782
-0.0684178
-0.067495
-0.0660608
-0.0653745
-0.0660362
-0.0679195
-0.0703571
-0.0721718
-0.0721706
-0.0700896
-0.0675405
-0.0661426
-0.0658269
-0.0655245
-0.0648808
-0.0642788
-0.0642892
-0.0652859
-0.0674149
-0.0699779
-0.0706898
-0.0681468
-0.0642473
-0.0621936
-0.0627818
-0.0645224
-0.0657909
-0.0662155
-0.0662798
-0.0669564
-0.0682762
-0.0688207
-0.0673551
-0.0648311
-0.0630927
-0.0631342
-0.0645604
-0.0660538
-0.0663538
-0.0655308
-0.0647121
-0.0644051
-0.0644641
-0.0646537
-0.0647648
-0.0645689
-0.0644987
-0.0647286
-0.0650484
-0.0650596
-0.0647522
-0.0644257
-0.0652029
-0.0671587
-0.0688391
-0.0685185
-0.0662449
-0.0627337
-0.0593964
-0.0577886
-0.0586468
-0.0612521
-0.064217
-0.066163
-0.0661855
-0.0645956
-0.0624664
-0.0608806
-0.0603548
-0.0607139
-0.0612133
-0.0615259
-0.0620611
-0.063064
-0.0638743
-0.0634527
-0.0614264
-0.0589113
-0.0576916
-0.05813
-0.0590867
-0.0593693
-0.0589969
-0.0583204
-0.0581682
-0.0589705
-0.0606622
-0.0624619
-0.0637321
-0.0636248
-0.062419
-0.0617476
-0.0630455
-0.0655159
-0.0671844
-0.0665603
-0.0640162
-0.0610863
-0.0595501
-0.0599936
-0.061646
-0.0630476
-0.063725
-0.0643495
-0.0651755
-0.065497
-0.0648772
-0.0637173
-0.0623924
-0.0614767
-0.0616473
-0.0629364
-0.0646715
-0.065876
-0.06568
-0.0641371
-0.0622618
-0.061154
-0.0617381
-0.0635896
-0.0645017
-0.0626017
-0.0579766
-0.0516338
-0.0443979
-0.0371535
-0.031735
-0.0302392
-0.0339386
-0.0424209
-0.0539914
-0.0657504
-0.0745513
-0.0782647
-0.0770481
-0.0730539
-0.0688897
-0.066276
-0.065202
-0.0647376
-0.0639998
-0.0631108
-0.0624729
-0.0630081
-0.0646341
-0.0658542
-0.0649484
-0.0625985
-0.0605773
-0.0602539
-0.0620624
-0.0651421
-0.0668999
-0.0651234
-0.061109
-0.0581066
-0.0579107
-0.0596606
-0.0618712
-0.0631402
-0.0631868
-0.062711
-0.0632462
-0.0648733
-0.0660144
-0.0647645
-0.0617182
-0.0589086
-0.0581336
-0.0591889
-0.0608158
-0.0613934
-0.0609461
-0.0607515
-0.0618537
-0.0636565
-0.0647989
-0.0642452
-0.0621177
-0.059487
-0.0575955
-0.0571441
-0.0578314
-0.0585815
-0.0586962
-0.0588706
-0.0594703
-0.0596458
-0.0588681
-0.0576908
-0.0564947
-0.0556399
-0.0556271
-0.0565377
-0.0582646
-0.0600395
-0.0603251
-0.058249
-0.0552769
-0.0535398
-0.0540636
-0.055931
-0.0578188
-0.0586102
-0.0581508
-0.0566832
-0.0556382
-0.0559223
-0.0567881
-0.0566976
-0.0559778
-0.0557055
-0.0565897
-0.0584125
-0.0602909
-0.0607444
-0.0593146
-0.0570477
-0.0557093
-0.0563716
-0.0590891
-0.0627831
-0.06568
-0.0667494
-0.0665242
-0.0657832
-0.0648766
-0.0640626
-0.063167
-0.0620344
-0.0612917
-0.0616228
-0.0631557
-0.0656112
-0.0677855
-0.0680437
-0.0665207
-0.0642181
-0.0621968
-0.0612773
-0.0621813
-0.0638807
-0.0649918
-0.0651615
-0.0655978
-0.0665277
-0.0667525
-0.0653971
-0.0636733
-0.0628214
-0.0630742
-0.0638294
-0.0646616
-0.0652239
-0.0653971
-0.0652075
-0.0655251
-0.0670649
-0.0685002
-0.0678089
-0.0652527
-0.063152
-0.0625638
-0.0631362
-0.0641845
-0.0651413
-0.0651767
-0.0642592
-0.0634392
-0.0639895
-0.0662996
-0.0687039
-0.0687184
-0.0658438
-0.0621974
-0.059631
-0.0590403
-0.0606295
-0.0635791
-0.0661105
-0.0671902
-0.0670846
-0.0669506
-0.0676581
-0.0683635
-0.0668694
-0.0633208
-0.0606589
-0.0609721
-0.0634112
-0.0660779
-0.0672402
-0.0662513
-0.0640988
-0.062542
-0.0628246
-0.0648925
-0.0673998
-0.0685744
-0.0677999
-0.0660307
-0.0647354
-0.0643591
-0.0643089
-0.0639679
-0.0634828
-0.0635631
-0.0650221
-0.0680822
-0.0710591
-0.0712376
-0.0680329
-0.0640418
-0.0617802
-0.0621605
-0.0645304
-0.0670997
-0.068051
-0.0676913
-0.0670953
-0.066634
-0.0659832
-0.0651625
-0.0640166
-0.0627532
-0.062068
-0.0623561
-0.063091
-0.0636429
-0.0636707
-0.0633594
-0.0632286
-0.0634809
-0.0637488
-0.0637892
-0.0633188
-0.0619195
-0.0603617
-0.0600896
-0.0619271
-0.0651618
-0.068464
-0.0705205
-0.0710753
-0.0703257
-0.0687844
-0.0675854
-0.06761
-0.068436
-0.0691512
-0.0696333
-0.0700714
-0.0708421
-0.0720522
-0.0725653
-0.0707432
-0.0673179
-0.064765
-0.0647143
-0.0666948
-0.0690089
-0.069955
-0.0698595
-0.0704198
-0.0724526
-0.0742
-0.0734821
-0.0702761
-0.0669449
-0.0656944
-0.0666612
-0.0682315
-0.0690855
-0.0688597
-0.0669514
-0.0622781
-0.0541805
-0.0445896
-0.0376485
-0.0363761
-0.0407879
-0.0497366
-0.0616757
-0.0740021
-0.083439
-0.0875871
-0.0861053
-0.0809221
-0.0751909
-0.0714905
-0.0706395
-0.0717137
-0.0729765
-0.07336
-0.0732561
-0.0734678
-0.0744615
-0.0759109
-0.07678
-0.0760736
-0.0746072
-0.0735754
-0.0730154
-0.072364
-0.0717395
-0.0711651
-0.0705703
-0.0704344
-0.0713579
-0.0733153
-0.0752496
-0.0756699
-0.073911
-0.0711449
-0.069258
-0.0692661
-0.0708519
-0.0728535
-0.0739473
-0.0738455
-0.0734001
-0.0737644
-0.074842
-0.0754885
-0.0749454
-0.073722
-0.0726112
-0.0720832
-0.0720824
-0.0720877
-0.0717662
-0.0715035
-0.0720601
-0.0732976
-0.0745463
-0.0750803
-0.0743398
-0.0722531
-0.0701319
-0.069267
-0.070039
-0.0720414
-0.0741865
-0.0747182
-0.0729652
-0.0701832
-0.0684306
-0.0687873
-0.0705877
-0.0718036
-0.0712107
-0.069715
-0.0688672
-0.0692883
-0.0706312
-0.0718111
-0.0712319
-0.068864
-0.0668268
-0.067145
-0.0697964
-0.0729279
-0.0743577
-0.0734729
-0.0719117
-0.0714864
-0.0725383
-0.0740343
-0.0749682
-0.0750983
-0.075356
-0.0764486
-0.0780996
-0.0794661
-0.0800049
-0.0792519
-0.0779278
-0.0773953
-0.0781187
-0.0793162
-0.0805731
-0.0818794
-0.0831343
-0.0840098
-0.0843211
-0.083992
-0.0830646
-0.0817742
-0.0802525
-0.0787858
-0.0779706
-0.078527
-0.0802987
-0.081895
-0.0824767
-0.0821595
-0.0816237
-0.0814499
-0.0824456
-0.0838655
-0.0841672
-0.0826388
-0.0805349
-0.0791217
-0.0788823
-0.0799229
-0.0818659
-0.0833916
-0.0837074
-0.0834317
-0.0835549
-0.0840749
-0.0845048
-0.0842879
-0.0835607
-0.0830133
-0.0832874
-0.084019
-0.0845362
-0.0844586
-0.0837602
-0.0828837
-0.0826703
-0.0839638
-0.0860576
-0.0872036
-0.0864205
-0.0848163
-0.0840901
-0.0846425
-0.0852654
-0.0847718
-0.0831828
-0.081541
-0.0811034
-0.0822262
-0.0842361
-0.0862095
-0.0872683
-0.0869487
-0.0859989
-0.0856383
-0.0863425
-0.0874484
-0.0878762
-0.0870102
-0.0856616
-0.0850602
-0.0859333
-0.0881861
-0.0905434
-0.0907914
-0.0884893
-0.0852257
-0.082622
-0.0814567
-0.0823171
-0.0848771
-0.0878091
-0.0900228
-0.0912206
-0.0915668
-0.0911915
-0.0902783
-0.0890175
-0.0879013
-0.0873084
-0.0876274
-0.0887742
-0.0899845
-0.0901817
-0.0893839
-0.0883578
-0.0876354
-0.0874997
-0.0879842
-0.0882259
-0.0873867
-0.0860091
-0.0853012
-0.085914
-0.0875716
-0.0889553
-0.0885232
-0.086438
-0.0844889
-0.0845125
-0.0862727
-0.0879859
-0.0883574
-0.0879817
-0.0878539
-0.0885878
-0.090094
-0.0916725
-0.0926374
-0.0931042
-0.0930782
-0.0927677
-0.0924116
-0.092126
-0.0914036
-0.0907421
-0.0908311
-0.0918022
-0.0933292
-0.0948434
-0.0954881
-0.094862
-0.0936786
-0.0927224
-0.092723
-0.0938349
-0.0956862
-0.0969473
-0.0966929
-0.0953023
-0.0940499
-0.0937807
-0.0944965
-0.0954941
-0.0964893
-0.0974673
-0.0983393
-0.0984871
-0.097037
-0.0933832
-0.0878684
-0.0811359
-0.0736859
-0.0674147
-0.0650298
-0.0674821
-0.0730224
-0.0803842
-0.0892266
-0.098542
-0.106115
-0.11
-0.1098
-0.10707
-0.103827
-0.101466
-0.100676
-0.101153
-0.101495
-0.100816
-0.0996958
-0.0990523
-0.0992676
-0.100166
-0.100894
-0.100622
-0.100018
-0.100033
-0.100607
-0.100918
-0.100413
-0.0986687
-0.0965741
-0.0957072
-0.0967705
-0.0988798
-0.101018
-0.102124
-0.101531
-0.0999007
-0.0988007
-0.09873
-0.0991848
-0.0996348
-0.0998242
-0.0997586
-0.0996926
-0.100096
-0.101124
-0.101911
-0.101205
-0.0991762
-0.0974328
-0.097247
-0.0988675
-0.101518
-0.103388
-0.103422
-0.102295
-0.100869
-0.0995344
-0.0987644
-0.0985629
-0.0983463
-0.0982316
-0.098838
-0.100682
-0.103004
-0.10404
-0.102533
-0.0993093
-0.096327
-0.0950082
-0.095506
-0.0969367
-0.0983778
-0.099045
-0.0988209
-0.0983106
-0.0980808
-0.0979536
-0.0976376
-0.0968902
-0.0958891
-0.0954252
-0.0963276
-0.0984942
-0.100944
-0.102218
-0.10178
-0.100593
-0.100018
-0.100595
-0.101833
-0.103019
-0.103519
-0.103734
-0.104697
-0.10724
-0.110137
-0.111442
-0.110289
-0.107944
-0.106002
-0.105559
-0.106678
-0.108558
-0.109808
-0.109885
-0.109469
-0.109562
-0.110446
-0.111418
-0.111181
-0.109469
-0.107528
-0.106796
-0.107734
-0.10961
-0.111349
-0.112271
-0.112465
-0.112458
-0.112567
-0.112401
-0.111691
-0.110592
-0.109645
-0.109409
-0.110369
-0.112075
-0.113576
-0.114011
-0.113509
-0.112971
-0.113054
-0.113586
-0.113848
-0.113362
-0.111937
-0.110389
-0.109655
-0.110262
-0.112007
-0.114083
-0.11492
-0.11403
-0.112668
-0.112495
-0.113759
-0.115195
-0.115488
-0.114557
-0.113104
-0.111617
-0.110968
-0.111993
-0.114031
-0.11515
-0.114775
-0.114358
-0.115328
-0.117025
-0.118356
-0.118578
-0.117414
-0.115263
-0.11355
-0.113072
-0.11356
-0.114213
-0.114525
-0.114573
-0.11453
-0.114683
-0.115044
-0.115211
-0.114688
-0.113917
-0.11362
-0.114328
-0.116036
-0.11805
-0.118704
-0.117169
-0.114795
-0.113577
-0.114233
-0.116023
-0.117497
-0.117538
-0.116751
-0.1165
-0.117139
-0.117811
-0.117932
-0.117107
-0.115616
-0.114375
-0.114466
-0.115505
-0.116384
-0.116238
-0.115561
-0.1153
-0.115888
-0.116834
-0.117179
-0.116146
-0.11399
-0.112105
-0.111612
-0.112418
-0.113761
-0.115071
-0.115897
-0.116535
-0.11736
-0.118155
-0.118272
-0.117743
-0.116952
-0.116504
-0.116796
-0.117813
-0.119203
-0.12037
-0.120897
-0.120744
-0.120618
-0.121147
-0.122506
-0.123921
-0.124441
-0.122998
-0.120245
-0.118366
-0.119077
-0.121547
-0.123912
-0.124959
-0.124548
-0.123191
-0.121888
-0.121608
-0.122651
-0.124336
-0.125501
-0.125307
-0.123578
-0.121023
-0.118296
-0.114945
-0.109545
-0.101877
-0.0939558
-0.089183
-0.0898168
-0.0955439
-0.104749
-0.115866
-0.126676
-0.134141
-0.136764
-0.135573
-0.132515
-0.12904
-0.126341
-0.12522
-0.12558
-0.126435
-0.126802
-0.126221
-0.125094
-0.124321
-0.124522
-0.125443
-0.1264
-0.126771
-0.126377
-0.125156
-0.123401
-0.122435
-0.12304
-0.124178
-0.124338
-0.124072
-0.12414
-0.124481
-0.124254
-0.123262
-0.121749
-0.120722
-0.120796
-0.121951
-0.123792
-0.125477
-0.125663
-0.124335
-0.123078
-0.122861
-0.123296
-0.123788
-0.123715
-0.122687
-0.121413
-0.121224
-0.122325
-0.124
-0.125214
-0.125064
-0.123438
-0.121529
-0.120298
-0.119927
-0.120175
-0.12066
-0.121057
-0.121362
-0.121727
-0.122193
-0.122381
-0.121902
-0.12061
-0.1189
-0.117461
-0.117207
-0.118893
-0.12186
-0.123365
-0.121689
-0.118349
-0.115993
-0.115862
-0.11733
-0.118917
-0.119596
-0.119612
-0.119626
-0.120148
-0.120886
-0.120863
-0.119587
-0.118069
-0.117755
-0.119072
-0.121148
-0.123011
-0.124402
-0.125522
-0.12644
-0.127286
-0.128032
-0.128112
-0.127082
-0.125366
-0.124229
-0.124629
-0.126613
-0.129034
-0.130049
-0.12871
-0.126516
-0.125446
-0.125954
-0.127256
-0.128463
-0.128623
-0.127832
-0.126955
-0.126737
-0.127335
-0.128109
-0.12825
-0.127824
-0.127582
-0.127769
-0.128376
-0.129133
-0.129716
-0.129732
-0.12901
-0.127769
-0.127013
-0.127193
-0.127473
-0.126976
-0.126106
-0.125639
-0.125901
-0.12673
-0.127466
-0.127483
-0.126812
-0.126338
-0.126751
-0.128148
-0.129817
-0.130827
-0.130417
-0.129249
-0.128561
-0.128866
-0.129404
-0.12921
-0.127655
-0.125462
-0.124264
-0.125284
-0.127829
-0.129934
-0.129953
-0.128129
-0.126119
-0.125187
-0.125415
-0.12616
-0.126847
-0.127108
-0.127322
-0.127796
-0.128602
-0.129462
-0.129992
-0.129622
-0.12846
-0.127182
-0.126628
-0.127292
-0.12895
-0.130325
-0.130165
-0.128712
-0.1268
-0.125046
-0.124151
-0.124573
-0.125308
-0.125562
-0.125617
-0.126202
-0.127362
-0.128768
-0.129373
-0.128541
-0.126672
-0.124671
-0.123255
-0.122742
-0.122696
-0.122382
-0.122057
-0.122547
-0.124019
-0.125489
-0.125745
-0.124574
-0.123309
-0.123344
-0.124427
-0.125345
-0.125862
-0.12608
-0.126079
-0.125927
-0.125936
-0.12632
-0.127131
-0.127917
-0.1282
-0.128002
-0.127562
-0.127419
-0.127722
-0.127979
-0.127411
-0.126078
-0.124812
-0.124622
-0.126085
-0.12864
-0.130631
-0.130819
-0.129316
-0.127322
-0.126048
-0.125516
-0.12468
-0.123307
-0.122883
-0.124486
-0.127356
-0.129759
-0.130296
-0.128061
-0.123383
-0.117026
-0.109357
-0.101351
-0.0955342
-0.0939797
-0.0975172
-0.106068
-0.118239
-0.130948
-0.140504
-0.144516
-0.142785
-0.137371
-0.131064
-0.126542
-0.124861
-0.125258
-0.12613
-0.126846
-0.12749
-0.128357
-0.129111
-0.12916
-0.128089
-0.12644
-0.12537
-0.125825
-0.127633
-0.129396
-0.129408
-0.127242
-0.124336
-0.122522
-0.122779
-0.12442
-0.125483
-0.124758
-0.123264
-0.122503
-0.122921
-0.124048
-0.12525
-0.125809
-0.125705
-0.125653
-0.12585
-0.125688
-0.12474
-0.123192
-0.121281
-0.119948
-0.12002
-0.121453
-0.123196
-0.124247
-0.12377
-0.122163
-0.120871
-0.120772
-0.121448
-0.122167
-0.122276
-0.121527
-0.120547
-0.120154
-0.120449
-0.120537
-0.119513
-0.117614
-0.116457
-0.11692
-0.118198
-0.118957
-0.118908
-0.118241
-0.117472
-0.117042
-0.117109
-0.117484
-0.117718
-0.116874
-0.115168
-0.114205
-0.114775
-0.116197
-0.117379
-0.117594
-0.116599
-0.11553
-0.115599
-0.117369
-0.12017
-0.122699
-0.123664
-0.12317
-0.122004
-0.120998
-0.12084
-0.121635
-0.122443
-0.1226
-0.122382
-0.122468
-0.123199
-0.123958
-0.123618
-0.121815
-0.119874
-0.119231
-0.120278
-0.121848
-0.122693
-0.122042
-0.120521
-0.119366
-0.119751
-0.121569
-0.123827
-0.125201
-0.12504
-0.123429
-0.121345
-0.120017
-0.120212
-0.121545
-0.122921
-0.123635
-0.123559
-0.12288
-0.121652
-0.120035
-0.117983
-0.116463
-0.116709
-0.118929
-0.121605
-0.123075
-0.122708
-0.121123
-0.119385
-0.11845
-0.118801
-0.119898
-0.120821
-0.120896
-0.119874
-0.118494
-0.118041
-0.118841
-0.119799
-0.119831
-0.118938
-0.118063
-0.117984
-0.118894
-0.120089
-0.120444
-0.119545
-0.118006
-0.116592
-0.116375
-0.117507
-0.118706
-0.118571
-0.117588
-0.116706
-0.116633
-0.117111
-0.117304
-0.11652
-0.115334
-0.114419
-0.1141
-0.114632
-0.115955
-0.116887
-0.116323
-0.115207
-0.115184
-0.116705
-0.11872
-0.120015
-0.119496
-0.117383
-0.114915
-0.113447
-0.113247
-0.113648
-0.113331
-0.112012
-0.110602
-0.109986
-0.110192
-0.110483
-0.110024
-0.109193
-0.109202
-0.109879
-0.110317
-0.110405
-0.110638
-0.110856
-0.110917
-0.110829
-0.110928
-0.110916
-0.11066
-0.110738
-0.111734
-0.113038
-0.114083
-0.115093
-0.115871
-0.115703
-0.114482
-0.113177
-0.11254
-0.112848
-0.113538
-0.113588
-0.112351
-0.110714
-0.109922
-0.110677
-0.112319
-0.113633
-0.113549
-0.112302
-0.110717
-0.109724
-0.109659
-0.110218
-0.110625
-0.110667
-0.110937
-0.111658
-0.112232
-0.111382
-0.108151
-0.102299
-0.094601
-0.0862599
-0.0795928
-0.0769356
-0.078964
-0.0846895
-0.0935878
-0.104576
-0.114893
-0.121622
-0.123831
-0.122529
-0.119057
-0.114878
-0.111273
-0.109092
-0.108263
-0.108435
-0.108909
-0.109302
-0.109742
-0.110441
-0.111161
-0.111402
-0.110649
-0.108902
-0.107029
-0.10608
-0.106422
-0.107289
-0.107905
-0.107806
-0.107022
-0.105898
-0.105511
-0.105934
-0.106461
-0.106349
-0.105951
-0.105565
-0.105274
-0.104932
-0.104922
-0.10516
-0.105205
-0.10473
-0.104086
-0.104122
-0.105027
-0.105551
-0.104507
-0.102404
-0.100806
-0.100959
-0.102395
-0.103775
-0.104158
-0.103538
-0.102403
-0.101622
-0.101479
-0.101629
-0.101536
-0.100881
-0.0998913
-0.0989788
-0.0985596
-0.0986636
-0.0987312
-0.0980822
-0.0971322
-0.0967346
-0.0974044
-0.098864
-0.100039
-0.0995572
-0.0973699
-0.0946798
-0.0929793
-0.0929472
-0.094402
-0.0961798
-0.0971025
-0.096965
-0.0963457
-0.095868
-0.0957211
-0.0953258
-0.0942941
-0.0937571
-0.0948273
-0.0969234
-0.0987141
-0.0996426
-0.0995122
-0.0984744
-0.0972808
-0.0968848
-0.0978221
-0.0999211
-0.101962
-0.103022
-0.103262
-0.102799
-0.101586
-0.100126
-0.0988243
-0.0976653
-0.0969616
-0.097011
-0.0979917
-0.0998098
-0.102066
-0.103851
-0.104485
-0.103995
-0.103146
-0.102365
-0.10144
-0.100047
-0.0982805
-0.0966474
-0.095964
-0.0967138
-0.098262
-0.0992467
-0.0990936
-0.0985449
-0.0983772
-0.0985353
-0.0984779
-0.0980265
-0.0971332
-0.096117
-0.0956361
-0.0962325
-0.0975697
-0.0987165
-0.0988626
-0.0977507
-0.0959178
-0.0942919
-0.0938215
-0.0947373
-0.0965502
-0.0982548
-0.0992113
-0.0991882
-0.0987816
-0.0983641
-0.0974627
-0.0952124
-0.0923056
-0.0904802
-0.0906766
-0.0925043
-0.0948384
-0.0962789
-0.0960381
-0.0948097
-0.0937453
-0.0933531
-0.0935018
-0.0937424
-0.0933854
-0.0925129
-0.0919039
-0.0921525
-0.0930337
-0.0941228
-0.0950162
-0.0953065
-0.0944708
-0.0928223
-0.0914614
-0.0910791
-0.0909807
-0.0907417
-0.0906833
-0.0913166
-0.0922813
-0.0926667
-0.0917688
-0.0898117
-0.0878805
-0.0866089
-0.0862166
-0.0865525
-0.0872282
-0.0873824
-0.0870493
-0.086734
-0.0865831
-0.0864453
-0.086243
-0.0856221
-0.0847284
-0.0844451
-0.0853125
-0.0870998
-0.0889268
-0.0894652
-0.0881885
-0.0864429
-0.0860768
-0.0875767
-0.0899177
-0.0916502
-0.0918809
-0.0908198
-0.0893267
-0.0881518
-0.0877511
-0.0878519
-0.0878143
-0.0873875
-0.0871774
-0.087718
-0.0893438
-0.0911522
-0.0917265
-0.0903776
-0.0882469
-0.0866844
-0.0863285
-0.0868015
-0.087245
-0.086838
-0.0858293
-0.0851975
-0.0857052
-0.0868802
-0.0873878
-0.0856543
-0.081163
-0.0745654
-0.0671572
-0.0603471
-0.0557368
-0.0549591
-0.0585938
-0.0665262
-0.077573
-0.0893515
-0.0986851
-0.103342
-0.102277
-0.096802
-0.0904838
-0.0863538
-0.0849317
-0.084969
-0.0853549
-0.0851063
-0.084434
-0.0839832
-0.0845506
-0.086051
-0.087795
-0.0883662
-0.087127
-0.0848348
-0.082798
-0.0818264
-0.0819817
-0.0826758
-0.0834196
-0.0840477
-0.0843608
-0.0842611
-0.0841953
-0.0839779
-0.0828963
-0.081323
-0.0804832
-0.0804856
-0.0806451
-0.0807392
-0.0807919
-0.0807057
-0.0804374
-0.0802034
-0.0802503
-0.0802435
-0.0795045
-0.0781722
-0.0771689
-0.077183
-0.0783929
-0.0802064
-0.0812734
-0.0805987
-0.0789177
-0.0776544
-0.077402
-0.0776573
-0.0778047
-0.0773538
-0.0763084
-0.0749771
-0.0740013
-0.073873
-0.0745327
-0.0753975
-0.0760184
-0.0760711
-0.0756147
-0.0749051
-0.0739477
-0.0724825
-0.0708593
-0.0701739
-0.0711542
-0.0734924
-0.0758881
-0.0771431
-0.0764677
-0.0741726
-0.07153
-0.070027
-0.0700479
-0.07093
-0.0716162
-0.071521
-0.0713171
-0.072079
-0.0740187
-0.0758786
-0.0764144
-0.075603
-0.0748258
-0.0752891
-0.0771396
-0.0793314
-0.0805034
-0.0798539
-0.0781687
-0.0769788
-0.0771329
-0.0782181
-0.0792952
-0.0792731
-0.0779139
-0.076495
-0.0765683
-0.0779648
-0.079345
-0.0797228
-0.0790843
-0.0778642
-0.0767542
-0.0764118
-0.0771647
-0.0781353
-0.0781258
-0.0772409
-0.0767085
-0.0773466
-0.0790161
-0.0805792
-0.0805862
-0.0790412
-0.0774261
-0.0767876
-0.0767274
-0.0766002
-0.0762036
-0.0757761
-0.0758649
-0.0766096
-0.0778205
-0.0789643
-0.0790627
-0.0771079
-0.0743062
-0.0728686
-0.0739092
-0.0764552
-0.0785334
-0.0783928
-0.076408
-0.0744409
-0.0740996
-0.0754378
-0.0772916
-0.0779804
-0.0767532
-0.0746327
-0.0733214
-0.0733149
-0.073997
-0.0747932
-0.0755086
-0.0759996
-0.0758897
-0.0754951
-0.0756615
-0.0762187
-0.0761307
-0.0751521
-0.0738753
-0.0728872
-0.0729303
-0.0742642
-0.0759426
-0.0762987
-0.0750806
-0.0734204
-0.0726636
-0.0730274
-0.0740041
-0.0744405
-0.0738324
-0.0728017
-0.0727294
-0.0742684
-0.0766332
-0.077951
-0.0767766
-0.0736787
-0.0705626
-0.0689663
-0.0691863
-0.0703857
-0.0711427
-0.0706884
-0.0697322
-0.06949
-0.0702392
-0.0708587
-0.0701297
-0.0682743
-0.0667826
-0.0666112
-0.0674157
-0.0680878
-0.0677163
-0.0666049
-0.0661928
-0.067398
-0.0698919
-0.0725463
-0.0742693
-0.0746015
-0.0743741
-0.0742018
-0.073991
-0.0735602
-0.0733505
-0.0729656
-0.0720686
-0.0710826
-0.0710969
-0.0722059
-0.073484
-0.0736726
-0.0728649
-0.0720611
-0.0720268
-0.0730532
-0.074465
-0.0748002
-0.0735058
-0.0717649
-0.0708142
-0.0709272
-0.0716592
-0.0723679
-0.07244
-0.0719155
-0.0713992
-0.0711198
-0.0704597
-0.0684648
-0.0645494
-0.0584869
-0.0507467
-0.0435819
-0.040331
-0.0427528
-0.0501706
-0.0606342
-0.0715216
-0.0802077
-0.0849384
-0.0853604
-0.082691
-0.0787977
-0.0752346
-0.0728587
-0.0721826
-0.0732031
-0.0750305
-0.0758478
-0.0746869
-0.0722545
-0.0699704
-0.0687903
-0.0692023
-0.0710217
-0.0732612
-0.0745006
-0.0741137
-0.0731462
-0.0727716
-0.0727538
-0.0719891
-0.0703974
-0.0689378
-0.0686733
-0.0697179
-0.0710765
-0.0716626
-0.0712516
-0.0703404
-0.069317
-0.0685793
-0.0684211
-0.0687346
-0.0690623
-0.0693092
-0.0695476
-0.0698029
-0.0701069
-0.0703734
-0.0700208
-0.0690463
-0.0680339
-0.0676751
-0.0680627
-0.0687878
-0.069047
-0.068547
-0.0675804
-0.0667634
-0.0669468
-0.0680911
-0.0688518
-0.068088
-0.0663499
-0.0647975
-0.0643343
-0.0650727
-0.0661572
-0.0665177
-0.0662566
-0.0662186
-0.0669555
-0.0677614
-0.0673704
-0.0652071
-0.0621396
-0.059657
-0.0590323
-0.0607067
-0.0636127
-0.0656995
-0.0655448
-0.0635534
-0.0612084
-0.0601341
-0.0606567
-0.0621983
-0.0639063
-0.0655103
-0.0666873
-0.0676469
-0.0685919
-0.0693941
-0.0694666
-0.0690162
-0.0689687
-0.0700344
-0.0719701
-0.0738468
-0.0742043
-0.072418
-0.0697287
-0.0680125
-0.0683176
-0.0703321
-0.0728467
-0.0740549
-0.073396
-0.071632
-0.0702874
-0.0703202
-0.0715948
-0.0728716
-0.0732164
-0.0727718
-0.0722386
-0.0724217
-0.073637
-0.0747099
-0.0743014
-0.0726523
-0.0708852
-0.0700577
-0.0706437
-0.0721818
-0.0734671
-0.0739193
-0.0735506
-0.0726313
-0.0717478
-0.0714582
-0.0716269
-0.0715162
-0.0712668
-0.0712916
-0.0716971
-0.0721027
-0.0722061
-0.0715875
-0.0708328
-0.0707217
-0.0714829
-0.0725719
-0.0735065
-0.0735961
-0.0725985
-0.0707898
-0.0691207
-0.068757
-0.0700854
-0.0720642
-0.0734481
-0.0738905
-0.0741059
-0.0748849
-0.0758141
-0.0755627
-0.0735892
-0.0710268
-0.0692587
-0.0691681
-0.0702838
-0.0714209
-0.0714484
-0.0710304
-0.0712805
-0.072394
-0.0734716
-0.0738252
-0.0730757
-0.0721293
-0.0721694
-0.0732541
-0.0743437
-0.0745104
-0.0730727
-0.0705927
-0.0688744
-0.0690399
-0.0709101
-0.0736316
-0.0757136
-0.0754669
-0.0729771
-0.069825
-0.0677555
-0.0675212
-0.0687385
-0.0701053
-0.0708839
-0.0707525
-0.0696928
-0.0687764
-0.0688068
-0.0688545
-0.0677939
-0.0665606
-0.0664064
-0.0677266
-0.0697086
-0.0712743
-0.0714595
-0.0704341
-0.0691505
-0.0689396
-0.070274
-0.0726139
-0.0744326
-0.0750842
-0.0753968
-0.0761575
-0.0767176
-0.0759544
-0.0737486
-0.0710969
-0.0695037
-0.069959
-0.0721699
-0.0748458
-0.0770354
-0.0783253
-0.0781429
-0.0761209
-0.0730513
-0.07068
-0.0700062
-0.070476
-0.0711606
-0.0719095
-0.0733101
-0.0761888
-0.0800692
-0.0826899
-0.0818145
-0.0776253
-0.0718047
-0.0658486
-0.0598287
-0.0530155
-0.0457841
-0.0413173
-0.0429021
-0.050965
-0.0631404
-0.0756783
-0.0847918
-0.0886953
-0.0879805
-0.0846063
-0.0807918
-0.07802
-0.0764083
-0.0751565
-0.0741449
-0.0740825
-0.0753609
-0.0771809
-0.0783949
-0.0783982
-0.0780317
-0.0783095
-0.0787475
-0.0782503
-0.0768374
-0.0750774
-0.0737327
-0.0734887
-0.0745675
-0.0766653
-0.0789889
-0.0802224
-0.079487
-0.0773234
-0.0749546
-0.0734417
-0.072857
-0.0726575
-0.0722685
-0.0723761
-0.0737505
-0.0763192
-0.0786936
-0.0796328
-0.0786837
-0.0766934
-0.0747888
-0.0739979
-0.0750251
-0.0771792
-0.0784814
-0.0777049
-0.0753919
-0.0727784
-0.0708326
-0.0698948
-0.0700447
-0.0710678
-0.0725353
-0.0738987
-0.0750778
-0.0758289
-0.0758003
-0.0746379
-0.0727697
-0.0714271
-0.0713987
-0.0725866
-0.0739053
-0.0740741
-0.0728004
-0.071202
-0.0701778
-0.0701234
-0.0706509
-0.0707935
-0.0698721
-0.0688569
-0.0689561
-0.0706737
-0.0731237
-0.0749504
-0.0747686
-0.0723979
-0.0696062
-0.0686266
-0.0698318
-0.0718353
-0.0734851
-0.0744252
-0.075064
-0.0759179
-0.0773488
-0.0789562
-0.0797831
-0.0792163
-0.0780049
-0.0773487
-0.0778962
-0.0792898
-0.0805587
-0.0807342
-0.0800595
-0.0797123
-0.0803957
-0.0817131
-0.0828803
-0.0833378
-0.0830723
-0.0827114
-0.0825988
-0.0827838
-0.0829277
-0.0825934
-0.0813928
-0.0797881
-0.0785477
-0.0783904
-0.0792206
-0.0803094
-0.0807807
-0.0806677
-0.0805517
-0.0808922
-0.0816018
-0.0823897
-0.0827519
-0.0823429
-0.0814047
-0.0807875
-0.0811073
-0.0821857
-0.0829092
-0.0824426
-0.0811829
-0.0803231
-0.0806145
-0.081928
-0.0831537
-0.0834179
-0.083063
-0.0831355
-0.0838255
-0.0846979
-0.0851779
-0.0849517
-0.0839042
-0.0824294
-0.0811745
-0.0807545
-0.0811026
-0.0816549
-0.0817487
-0.0816067
-0.0814558
-0.0815103
-0.0819412
-0.0827235
-0.083087
-0.0827309
-0.0821876
-0.0821873
-0.0827971
-0.0833892
-0.0834154
-0.0830218
-0.0827869
-0.0829928
-0.0836728
-0.0846628
-0.0852946
-0.0848546
-0.08371
-0.0828041
-0.0826108
-0.0832708
-0.0842648
-0.0845575
-0.0837027
-0.0826008
-0.0817889
-0.0814098
-0.0814641
-0.0820069
-0.0825724
-0.0831137
-0.0833735
-0.0831946
-0.0825436
-0.0820482
-0.08194
-0.0817694
-0.0808831
-0.0797118
-0.0790917
-0.0791791
-0.0792363
-0.0787569
-0.078475
-0.0792479
-0.080864
-0.0821616
-0.0823786
-0.0814709
-0.0803078
-0.0799331
-0.0808482
-0.0828745
-0.0851766
-0.0864525
-0.086111
-0.0849109
-0.0838528
-0.0838013
-0.0849612
-0.0864266
-0.0870766
-0.0870176
-0.0869292
-0.0873013
-0.0879158
-0.0881044
-0.0871909
-0.0854513
-0.0838116
-0.0831188
-0.0835943
-0.0850002
-0.0865051
-0.0872413
-0.0869646
-0.0862274
-0.0860662
-0.0869731
-0.0879764
-0.0873013
-0.0844714
-0.0806069
-0.0769807
-0.0734958
-0.0687688
-0.0624025
-0.0562627
-0.0538241
-0.0572953
-0.0669885
-0.0804504
-0.0933411
-0.101003
-0.101856
-0.0979183
-0.0931711
-0.0902634
-0.0890961
-0.0880066
-0.086447
-0.0851104
-0.0852256
-0.0870964
-0.0897704
-0.0914731
-0.0912168
-0.0893607
-0.0873008
-0.0865465
-0.0875104
-0.089268
-0.0903149
-0.089818
-0.0878491
-0.085492
-0.0843811
-0.085332
-0.0872034
-0.0880336
-0.0871753
-0.0855598
-0.0848075
-0.085618
-0.0871044
-0.0877156
-0.0871443
-0.0859244
-0.0846718
-0.0839245
-0.0841458
-0.0853264
-0.0870568
-0.0884603
-0.088799
-0.0881727
-0.0874012
-0.0870448
-0.0866431
-0.0856347
-0.084175
-0.0831524
-0.0831719
-0.0841306
-0.0850163
-0.0851272
-0.0846001
-0.0842212
-0.084512
-0.0848211
-0.0838985
-0.081927
-0.0804846
-0.0803838
-0.0816814
-0.0838107
-0.0855929
-0.085347
-0.0831919
-0.0809031
-0.080463
-0.081973
-0.0841703
-0.0850426
-0.0838221
-0.0817365
-0.08058
-0.080646
-0.0810107
-0.080952
-0.0802729
-0.0796358
-0.0797583
-0.0809771
-0.0826166
-0.0838184
-0.0839978
-0.0838413
-0.0845911
-0.0866499
-0.0891899
-0.0912274
-0.0918077
-0.0904788
-0.0884981
-0.0877705
-0.0887039
-0.0899972
-0.0905175
-0.0899456
-0.0889521
-0.0882908
-0.0887388
-0.0905472
-0.0925519
-0.0928334
-0.0912087
-0.0891431
-0.0879001
-0.0881654
-0.0896967
-0.0910346
-0.0911874
-0.090555
-0.0899589
-0.0899375
-0.0906664
-0.09166
-0.0918676
-0.0910364
-0.0901184
-0.0900855
-0.0905986
-0.0906897
-0.089926
-0.0886973
-0.0879737
-0.0882634
-0.0893392
-0.0903035
-0.0903423
-0.0893266
-0.0881703
-0.0878536
-0.0886402
-0.0897791
-0.090371
-0.0900044
-0.089401
-0.0894232
-0.09016
-0.0912266
-0.0920551
-0.0915957
-0.0892593
-0.0865435
-0.0855893
-0.0870579
-0.0898196
-0.0921927
-0.0929496
-0.0924241
-0.0917344
-0.0912183
-0.0905615
-0.0895366
-0.0881431
-0.0868793
-0.0866942
-0.087695
-0.0894043
-0.0909912
-0.0915331
-0.09036
-0.0883418
-0.0869053
-0.0868792
-0.0878674
-0.0889102
-0.0893079
-0.0890953
-0.0886097
-0.0882006
-0.0880755
-0.0883238
-0.0890228
-0.0897145
-0.0897739
-0.089091
-0.0883624
-0.0882933
-0.0886727
-0.0882077
-0.0867196
-0.0856232
-0.0859333
-0.0870834
-0.0877779
-0.0871702
-0.0853174
-0.0833757
-0.082591
-0.0835467
-0.0855313
-0.0872122
-0.0874641
-0.0864947
-0.0853987
-0.0852839
-0.0864221
-0.0880932
-0.0888307
-0.0880453
-0.0869613
-0.0871638
-0.0885724
-0.090028
-0.0908111
-0.0907083
-0.0900491
-0.0895579
-0.0898208
-0.0907102
-0.0916912
-0.0920162
-0.0913977
-0.0903373
-0.089601
-0.0897179
-0.0906196
-0.091301
-0.0907001
-0.0892805
-0.0880533
-0.0876732
-0.088314
-0.0896312
-0.090208
-0.0892782
-0.087294
-0.0855185
-0.0843318
-0.0827002
-0.0788119
-0.071953
-0.0635441
-0.0570153
-0.0555186
-0.0598035
-0.0683846
-0.0793624
-0.0905289
-0.0993661
-0.10378
-0.103588
-0.100409
-0.0962233
-0.0926961
-0.0907931
-0.0903304
-0.0903226
-0.0900979
-0.0892854
-0.0879871
-0.0870778
-0.0874462
-0.0893898
-0.0916729
-0.0927503
-0.0919222
-0.0904054
-0.089422
-0.0896131
-0.0902195
-0.0903811
-0.089333
-0.0873545
-0.0857134
-0.0856947
-0.0871849
-0.0889707
-0.0898209
-0.0892232
-0.0877152
-0.0862274
-0.0855892
-0.0862484
-0.0878053
-0.0891054
-0.0893681
-0.0886695
-0.0874434
-0.0864365
-0.085938
-0.0854506
-0.0844427
-0.0837386
-0.0842675
-0.0858796
-0.0871731
-0.0869869
-0.0852123
-0.0831904
-0.082315
-0.0830886
-0.084618
-0.0856503
-0.085333
-0.0840498
-0.0827085
-0.0819063
-0.0816193
-0.0815908
-0.0818876
-0.0826033
-0.0835012
-0.0834464
-0.0821332
-0.080522
-0.0794224
-0.0785368
-0.0780557
-0.0786115
-0.0800561
-0.0815233
-0.0822956
-0.0821699
-0.0811453
-0.0797348
-0.078605
-0.0783959
-0.0792534
-0.0806018
-0.0813174
-0.0812439
-0.0811568
-0.0818878
-0.083386
-0.0848282
-0.0854268
-0.0852696
-0.0851571
-0.0858746
-0.0873275
-0.0889275
-0.0898697
-0.0894022
-0.0876272
-0.0857102
-0.0849514
-0.08592
-0.0877406
-0.0885957
-0.0878081
-0.0863998
-0.0856541
-0.0860991
-0.0874203
-0.088843
-0.0896162
-0.0896786
-0.0893358
-0.0889634
-0.0885279
-0.0878236
-0.0868553
-0.0862282
-0.0862239
-0.0868257
-0.087618
-0.0879758
-0.0870331
-0.0850692
-0.0833145
-0.082908
-0.0839258
-0.0855116
-0.0863455
-0.0858742
-0.0847499
-0.0839926
-0.0843274
-0.0855469
-0.0865579
-0.0864458
-0.0853117
-0.0839809
-0.0832844
-0.0836076
-0.0846193
-0.0857724
-0.0864628
-0.0865034
-0.085964
-0.0854098
-0.0851488
-0.0848857
-0.0839326
-0.0828702
-0.0827716
-0.0839734
-0.0855181
-0.0861183
-0.084951
-0.0827928
-0.0812901
-0.0814622
-0.0832079
-0.085353
-0.0863916
-0.085419
-0.0831302
-0.0809181
-0.0802226
-0.0813222
-0.0834202
-0.0850328
-0.0856611
-0.0852095
-0.083624
-0.081757
-0.0806424
-0.0801637
-0.0797258
-0.0797619
-0.080508
-0.081837
-0.0827162
-0.0821653
-0.0801671
-0.0780543
-0.0769901
-0.0774584
-0.0789561
-0.0804189
-0.0807445
-0.0797711
-0.0779049
-0.076112
-0.0753435
-0.0759308
-0.0767437
-0.0766425
-0.0757332
-0.0752871
-0.0762885
-0.0786698
-0.0808989
-0.0814746
-0.0804182
-0.0790362
-0.0784676
-0.0791417
-0.08041
-0.0812281
-0.0808647
-0.0796368
-0.0786272
-0.0788714
-0.0798711
-0.0804962
-0.079946
-0.0789729
-0.0787694
-0.0799368
-0.0816019
-0.0827039
-0.0823319
-0.0807312
-0.0791432
-0.0787599
-0.0793674
-0.079931
-0.0795406
-0.0781922
-0.0766758
-0.0757778
-0.0755122
-0.0750808
-0.0729515
-0.0680289
-0.0605344
-0.0523858
-0.0465024
-0.0456818
-0.0504882
-0.0598056
-0.0715578
-0.0828934
-0.0908
-0.0939866
-0.0929496
-0.0892712
-0.0848839
-0.0814904
-0.0796745
-0.0792323
-0.0795448
-0.079981
-0.0799118
-0.0794704
-0.0787472
-0.0777434
-0.0766715
-0.0762128
-0.076475
-0.0769872
-0.0772988
-0.0776528
-0.0781818
-0.0785774
-0.0780878
-0.0770446
-0.0764658
-0.0769806
-0.0778324
-0.0784923
-0.0787452
-0.0786193
-0.0779588
-0.0770696
-0.0761592
-0.0755121
-0.075235
-0.0755318
-0.0757187
-0.0752517
-0.0741752
-0.0733367
-0.0728924
-0.0727721
-0.0729568
-0.0734124
-0.0737443
-0.073863
-0.0741443
-0.074658
-0.0748753
-0.0742042
-0.0735219
-0.0739252
-0.0751024
-0.0758071
-0.0755027
-0.0738702
-0.0713156
-0.0692167
-0.0686123
-0.0691754
-0.0699693
-0.0702214
-0.0695257
-0.0686271
-0.0684679
-0.0694932
-0.0709053
-0.071886
-0.0716664
-0.0707032
-0.069396
-0.0682006
-0.0672862
-0.0672972
-0.0678098
-0.0680963
-0.0680474
-0.0682883
-0.0688659
-0.0694738
-0.0697173
-0.0693556
-0.0686722
-0.068449
-0.0691772
-0.0710011
-0.0732179
-0.0744142
-0.0736644
-0.0718332
-0.0707532
-0.0715733
-0.0734433
-0.0744167
-0.0735868
-0.0722198
-0.0720288
-0.0736455
-0.0755993
-0.0760674
-0.074348
-0.0718365
-0.0700081
-0.0695372
-0.0703666
-0.0722627
-0.0740477
-0.0746348
-0.0743011
-0.0739185
-0.0739297
-0.0741204
-0.0742609
-0.074134
-0.073821
-0.0732371
-0.0726755
-0.0724035
-0.0721965
-0.0713631
-0.0702585
-0.0699239
-0.0708793
-0.0724372
-0.0735174
-0.0732783
-0.0718714
-0.0704968
-0.0702008
-0.0711465
-0.0727139
-0.074206
-0.0747609
-0.0741936
-0.0728269
-0.0716674
-0.0713762
-0.0715131
-0.0708668
-0.0692771
-0.0676147
-0.0670098
-0.0678763
-0.0694936
-0.0704047
-0.0699623
-0.0690642
-0.0689613
-0.0698672
-0.0709469
-0.0715988
-0.0716381
-0.0712023
-0.0706277
-0.0702825
-0.0701821
-0.0698661
-0.0689874
-0.0677204
-0.0669951
-0.0673732
-0.0688531
-0.0704598
-0.0710874
-0.0700359
-0.0679794
-0.0660654
-0.0653249
-0.065813
-0.0670767
-0.0681611
-0.0682857
-0.0674892
-0.0668496
-0.067415
-0.0690725
-0.0702539
-0.0696002
-0.0674386
-0.0653902
-0.0645789
-0.0647555
-0.0646766
-0.0634693
-0.06179
-0.0610745
-0.0619351
-0.0634545
-0.0641007
-0.0629776
-0.0607669
-0.0593221
-0.0601837
-0.063624
-0.0679684
-0.0707578
-0.0706502
-0.0688255
-0.0669772
-0.066339
-0.0670721
-0.0683798
-0.0690007
-0.0688432
-0.0681209
-0.0670022
-0.0661891
-0.0664283
-0.0671271
-0.0674797
-0.0673609
-0.0673016
-0.0677784
-0.0685704
-0.0686514
-0.0673324
-0.0653076
-0.063908
-0.0637317
-0.0644668
-0.0654744
-0.066065
-0.0658484
-0.0651656
-0.0641362
-0.0625153
-0.0592531
-0.0532449
-0.0443982
-0.0356272
-0.030918
-0.0325087
-0.0397976
-0.0509793
-0.0630379
-0.0725509
-0.07762
-0.0785845
-0.0770354
-0.0744439
-0.0715269
-0.0686501
-0.0663437
-0.0647731
-0.0641492
-0.0647685
-0.0661106
-0.0670218
-0.0672128
-0.0674395
-0.0680426
-0.0685285
-0.0682263
-0.0669996
-0.0652482
-0.0639346
-0.0635681
-0.0638676
-0.064154
-0.0641918
-0.0641294
-0.0641994
-0.064027
-0.0632971
-0.0624982
-0.0624658
-0.063099
-0.0635755
-0.0636084
-0.0636596
-0.0642261
-0.0651132
-0.0656381
-0.0654662
-0.0648675
-0.0639272
-0.0626406
-0.0615427
-0.0611501
-0.0610698
-0.0607267
-0.0602455
-0.0601757
-0.0608579
-0.0620324
-0.0629007
-0.063005
-0.0626702
-0.0619984
-0.0610679
-0.0600077
-0.0590257
-0.0581511
-0.0579343
-0.0584512
-0.0594119
-0.0603415
-0.060806
-0.0603247
-0.0592393
-0.058452
-0.0583721
-0.0586667
-0.0587734
-0.0581519
-0.0568689
-0.0556715
-0.0551425
-0.0553001
-0.0561867
-0.0575053
-0.0583672
-0.0583041
-0.0576504
-0.0570137
-0.0574166
-0.0594199
-0.0614943
-0.0616161
-0.0602785
-0.0594637
-0.0605132
-0.0631468
-0.0658842
-0.0668448
-0.0656727
-0.0633333
-0.0616175
-0.0615447
-0.0626163
-0.0633661
-0.0632579
-0.0629493
-0.0635089
-0.0653307
-0.0672811
-0.0676217
-0.0659092
-0.0636007
-0.0623882
-0.0627303
-0.0638257
-0.0646689
-0.0646356
-0.0639057
-0.0632924
-0.0635513
-0.0645922
-0.0655021
-0.0651437
-0.063867
-0.0633685
-0.0642519
-0.0656734
-0.0666184
-0.0663932
-0.0646106
-0.0622477
-0.0605153
-0.060571
-0.0625286
-0.0651543
-0.0662151
-0.06524
-0.0634699
-0.0625951
-0.0629782
-0.0637999
-0.0638031
-0.0629375
-0.0623076
-0.0627703
-0.0639778
-0.0649733
-0.0648724
-0.0636205
-0.062149
-0.0613801
-0.061976
-0.0639954
-0.066149
-0.0665608
-0.0649442
-0.0627795
-0.0615617
-0.0617493
-0.0626655
-0.0632854
-0.0628449
-0.0619379
-0.0615583
-0.0620772
-0.0628093
-0.0632499
-0.0630745
-0.0625426
-0.0619859
-0.061761
-0.0620844
-0.062959
-0.0636304
-0.0637293
-0.0635081
-0.0634702
-0.0639204
-0.0649179
-0.0653148
-0.0640361
-0.0616309
-0.0597385
-0.0593368
-0.060652
-0.0628208
-0.0640323
-0.0630556
-0.0607389
-0.0585847
-0.0577523
-0.0581709
-0.0591822
-0.0597582
-0.0597665
-0.0595358
-0.0598169
-0.0604619
-0.0608152
-0.0601936
-0.0591653
-0.0587495
-0.0597975
-0.0618775
-0.0637721
-0.0642646
-0.0634816
-0.0626119
-0.0624773
-0.0631175
-0.0642723
-0.0655074
-0.0661003
-0.0658586
-0.0651441
-0.0643805
-0.0639115
-0.0637961
-0.063863
-0.0642375
-0.065185
-0.0662076
-0.0667901
-0.0666795
-0.0658687
-0.0642008
-0.0623115
-0.0611786
-0.0618723
-0.0641645
-0.0670905
-0.0687388
-0.0678012
-0.0646772
-0.060953
-0.0572999
-0.0536449
-0.0492492
-0.0435626
-0.037901
-0.0350633
-0.0366344
-0.0424662
-0.0515618
-0.0618353
-0.0705181
-0.0758559
-0.0775514
-0.076421
-0.0737346
-0.0705183
-0.0674479
-0.0654796
-0.0651048
-0.0660946
-0.0676165
-0.0686292
-0.068321
-0.0672352
-0.0662334
-0.0658567
-0.0661253
-0.0667831
-0.0667183
-0.0656364
-0.0645127
-0.0646785
-0.0663736
-0.0688498
-0.0704068
-0.0696755
-0.067062
-0.0646178
-0.0639702
-0.0647856
-0.0654806
-0.0652485
-0.0646892
-0.0644036
-0.0644782
-0.0652072
-0.0661121
-0.0659448
-0.0644288
-0.0630784
-0.0628728
-0.0640355
-0.0659197
-0.0674409
-0.0675209
-0.066406
-0.0649241
-0.0642181
-0.064666
-0.0658046
-0.0660999
-0.0650667
-0.0633664
-0.0621602
-0.0618834
-0.0624795
-0.0630556
-0.0631408
-0.0630879
-0.0631199
-0.0631986
-0.0633305
-0.0634305
-0.0632188
-0.062703
-0.0620393
-0.0616793
-0.0621628
-0.0632469
-0.0639799
-0.0636877
-0.0628095
-0.0621925
-0.0624723
-0.0629495
-0.0625364
-0.0611335
-0.0601848
-0.0605045
-0.0619033
-0.0636731
-0.0652567
-0.0657321
-0.0648357
-0.0633321
-0.0626047
-0.0635834
-0.0660476
-0.0685741
-0.0698387
-0.0700418
-0.0701431
-0.0704587
-0.0706557
-0.0706663
-0.0705114
-0.0704283
-0.0705697
-0.0710203
-0.0716182
-0.0720663
-0.0718883
-0.0711712
-0.0707468
-0.0711818
-0.0724942
-0.0739432
-0.07469
-0.0741508
-0.0729977
-0.0718403
-0.0713356
-0.0715448
-0.0721761
-0.0724558
-0.0723988
-0.0721262
-0.0720764
-0.0724767
-0.0730576
-0.0730926
-0.0723923
-0.071746
-0.0720352
-0.0734328
-0.0752245
-0.076341
-0.0758075
-0.0738868
-0.0720374
-0.0714056
-0.0718414
-0.0723569
-0.0721435
-0.0712171
-0.0708286
-0.0722476
-0.0752571
-0.0779687
-0.0785209
-0.0764204
-0.0731196
-0.0704586
-0.0697048
-0.0708507
-0.0733092
-0.0760905
-0.0782889
-0.0789651
-0.078006
-0.0764038
-0.0752321
-0.0745455
-0.0739223
-0.0737158
-0.074478
-0.0759419
-0.0772307
-0.07765
-0.0770712
-0.0758879
-0.0749236
-0.0746131
-0.0748523
-0.0749253
-0.0745264
-0.0741998
-0.0746936
-0.0757832
-0.076989
-0.078048
-0.0783965
-0.0775407
-0.0759206
-0.0744804
-0.0739479
-0.0743671
-0.0752512
-0.0758611
-0.0758713
-0.0752195
-0.0742187
-0.0734146
-0.0732837
-0.0737639
-0.0747099
-0.0760383
-0.07713
-0.0770533
-0.0759389
-0.0746314
-0.0735035
-0.0729257
-0.0738151
-0.0762014
-0.078958
-0.080983
-0.0818253
-0.0812827
-0.0801027
-0.0795084
-0.0797884
-0.079897
-0.0795009
-0.0789233
-0.0786762
-0.0788846
-0.0800751
-0.0819859
-0.0837588
-0.0839701
-0.0827132
-0.0812803
-0.0810933
-0.0821629
-0.0835676
-0.0839409
-0.0828635
-0.0812216
-0.0804556
-0.081313
-0.0832522
-0.0848649
-0.0854068
-0.0851683
-0.0845027
-0.0832534
-0.0811143
-0.0778213
-0.0729636
-0.0660052
-0.0579191
-0.0516578
-0.0501711
-0.0541541
-0.0629821
-0.0748894
-0.0868809
-0.0954475
-0.0993617
-0.0991616
-0.0964227
-0.0924802
-0.0886697
-0.0859133
-0.0848797
-0.0850565
-0.0853993
-0.0853423
-0.0852257
-0.0856674
-0.0869004
-0.0883913
-0.0892966
-0.0891102
-0.0878392
-0.0860154
-0.084436
-0.0838324
-0.0842809
-0.0851449
-0.0858108
-0.0863341
-0.0868312
-0.0870044
-0.0867178
-0.0862013
-0.0854651
-0.084724
-0.0847446
-0.0856961
-0.0870321
-0.0880657
-0.0880543
-0.0865019
-0.0845812
-0.0837398
-0.0845833
-0.0863836
-0.0881741
-0.0888098
-0.0881395
-0.0869623
-0.0864056
-0.0867885
-0.0875146
-0.0875284
-0.0863836
-0.0847682
-0.0836899
-0.0840703
-0.0859574
-0.087966
-0.0884725
-0.0876165
-0.0864985
-0.0858475
-0.0857916
-0.0860519
-0.0861724
-0.0858787
-0.0855116
-0.0853578
-0.085365
-0.0850114
-0.084164
-0.0830579
-0.082288
-0.0822101
-0.0829427
-0.0839815
-0.084558
-0.0841269
-0.0830951
-0.0823505
-0.0824914
-0.0835166
-0.0854921
-0.0878809
-0.0892858
-0.0893629
-0.0893678
-0.0901281
-0.0914153
-0.0925451
-0.092764
-0.0920026
-0.0914242
-0.0919763
-0.0934993
-0.095177
-0.0962963
-0.096393
-0.0957511
-0.0949816
-0.0947224
-0.0951437
-0.0958023
-0.095654
-0.0948298
-0.094078
-0.0940295
-0.0945026
-0.095151
-0.0950876
-0.0941469
-0.0929359
-0.0929263
-0.0947602
-0.097504
-0.0991088
-0.098581
-0.0966517
-0.0948747
-0.0942862
-0.0953251
-0.0978581
-0.100414
-0.101308
-0.100223
-0.0982028
-0.0965743
-0.095969
-0.0960368
-0.0961005
-0.0958805
-0.0959054
-0.0971105
-0.0989569
-0.0997654
-0.0987085
-0.0967697
-0.0952903
-0.0952159
-0.0968864
-0.0998523
-0.102272
-0.102686
-0.10143
-0.0997295
-0.098354
-0.0978193
-0.098057
-0.0984872
-0.0989953
-0.0998993
-0.101037
-0.101964
-0.102261
-0.101703
-0.100642
-0.0999756
-0.100135
-0.100907
-0.101518
-0.101422
-0.100626
-0.0997118
-0.0990006
-0.0990677
-0.100277
-0.102322
-0.103883
-0.104367
-0.104048
-0.103976
-0.104576
-0.105242
-0.104607
-0.102695
-0.100852
-0.100435
-0.101587
-0.103053
-0.103393
-0.102391
-0.101064
-0.100287
-0.100432
-0.101123
-0.101764
-0.102017
-0.101865
-0.101479
-0.10105
-0.101115
-0.101613
-0.101679
-0.100105
-0.0977527
-0.0968112
-0.098918
-0.10288
-0.106512
-0.108106
-0.107328
-0.104953
-0.10307
-0.103311
-0.105532
-0.108209
-0.109941
-0.110259
-0.109258
-0.107588
-0.106027
-0.105062
-0.104424
-0.104719
-0.106604
-0.109613
-0.112351
-0.113633
-0.112721
-0.109926
-0.106941
-0.105396
-0.10586
-0.107471
-0.10893
-0.109566
-0.109776
-0.110027
-0.110713
-0.111801
-0.11278
-0.112414
-0.110502
-0.107664
-0.10447
-0.100653
-0.0957977
-0.0893299
-0.0824821
-0.0785454
-0.0804653
-0.0884579
-0.100651
-0.113231
-0.122038
-0.125055
-0.123595
-0.120473
-0.117917
-0.11626
-0.114758
-0.113069
-0.111924
-0.111774
-0.112785
-0.114261
-0.115305
-0.115148
-0.114319
-0.113434
-0.113221
-0.113497
-0.113731
-0.1134
-0.112929
-0.112655
-0.11293
-0.113811
-0.115014
-0.115562
-0.114672
-0.112636
-0.110993
-0.111079
-0.112874
-0.11482
-0.115401
-0.114646
-0.113921
-0.114258
-0.115592
-0.116892
-0.116919
-0.115228
-0.113026
-0.112016
-0.112778
-0.114272
-0.115342
-0.11538
-0.114969
-0.114695
-0.114658
-0.114271
-0.11317
-0.111414
-0.109999
-0.109818
-0.111339
-0.113849
-0.115705
-0.115471
-0.113658
-0.111787
-0.110983
-0.111228
-0.111921
-0.112182
-0.111516
-0.110182
-0.109038
-0.10894
-0.110337
-0.112638
-0.114305
-0.114275
-0.113237
-0.112386
-0.112724
-0.114118
-0.11484
-0.113244
-0.110505
-0.108836
-0.109335
-0.111175
-0.113034
-0.11411
-0.114962
-0.115944
-0.117076
-0.118109
-0.119099
-0.119755
-0.119926
-0.119798
-0.119888
-0.120479
-0.121484
-0.122293
-0.122458
-0.122245
-0.122475
-0.123742
-0.125702
-0.126748
-0.125418
-0.122121
-0.119065
-0.118096
-0.119537
-0.12201
-0.123784
-0.124004
-0.123356
-0.122745
-0.123039
-0.123948
-0.124451
-0.123561
-0.122138
-0.121226
-0.121383
-0.122409
-0.124219
-0.126205
-0.127172
-0.12609
-0.123867
-0.122397
-0.122638
-0.123953
-0.12514
-0.125195
-0.124387
-0.123738
-0.124077
-0.125016
-0.125454
-0.12475
-0.123593
-0.122882
-0.123163
-0.123954
-0.124434
-0.124103
-0.12387
-0.124449
-0.125593
-0.126217
-0.126049
-0.124649
-0.122379
-0.120572
-0.12098
-0.123072
-0.125248
-0.12626
-0.12624
-0.125609
-0.124895
-0.124557
-0.125006
-0.126019
-0.126998
-0.127562
-0.12777
-0.12763
-0.127429
-0.127194
-0.126353
-0.124861
-0.123907
-0.12434
-0.12571
-0.126687
-0.126471
-0.12529
-0.124273
-0.124111
-0.124793
-0.12536
-0.125241
-0.124522
-0.123817
-0.12309
-0.122734
-0.123018
-0.123805
-0.124041
-0.123176
-0.121398
-0.119973
-0.120019
-0.121551
-0.123203
-0.123524
-0.122701
-0.122059
-0.122395
-0.123379
-0.124539
-0.125548
-0.126434
-0.127329
-0.128354
-0.129279
-0.129468
-0.128625
-0.127333
-0.126561
-0.126384
-0.12675
-0.127489
-0.128301
-0.128673
-0.12899
-0.129497
-0.129905
-0.129764
-0.129175
-0.128154
-0.12702
-0.126482
-0.126994
-0.128206
-0.129717
-0.130742
-0.130453
-0.128968
-0.12767
-0.127662
-0.128962
-0.130227
-0.129411
-0.125178
-0.118024
-0.109358
-0.101396
-0.0963133
-0.095735
-0.100028
-0.109218
-0.12149
-0.133547
-0.141982
-0.145082
-0.14253
-0.136883
-0.131816
-0.129569
-0.129814
-0.131072
-0.131351
-0.13052
-0.129835
-0.130034
-0.130739
-0.131334
-0.130967
-0.129563
-0.127971
-0.127004
-0.126948
-0.127943
-0.129438
-0.130232
-0.129801
-0.128969
-0.128425
-0.128189
-0.127996
-0.127797
-0.127503
-0.127565
-0.128292
-0.129651
-0.130656
-0.130378
-0.128438
-0.126098
-0.12476
-0.125061
-0.126077
-0.12689
-0.126969
-0.126816
-0.126743
-0.127003
-0.127541
-0.128111
-0.127744
-0.126458
-0.125092
-0.124262
-0.123774
-0.123604
-0.123716
-0.124022
-0.124055
-0.123704
-0.123584
-0.124154
-0.124664
-0.124177
-0.122696
-0.121687
-0.122105
-0.12335
-0.124094
-0.123851
-0.12272
-0.121366
-0.120406
-0.119949
-0.119832
-0.120282
-0.121022
-0.121599
-0.121677
-0.121943
-0.122496
-0.123062
-0.122848
-0.122245
-0.121575
-0.121185
-0.121196
-0.121796
-0.122636
-0.123661
-0.124956
-0.126629
-0.128704
-0.130963
-0.132169
-0.131009
-0.127814
-0.124882
-0.124333
-0.126517
-0.12978
-0.131857
-0.131655
-0.130217
-0.129258
-0.12984
-0.13135
-0.131975
-0.130794
-0.129317
-0.128918
-0.129501
-0.130024
-0.130137
-0.129519
-0.128622
-0.127815
-0.128047
-0.129406
-0.130933
-0.130886
-0.129615
-0.128166
-0.127518
-0.12773
-0.128642
-0.129314
-0.129269
-0.128262
-0.127019
-0.126488
-0.126965
-0.127338
-0.126857
-0.126081
-0.126166
-0.12724
-0.12867
-0.129296
-0.128445
-0.126844
-0.126238
-0.127208
-0.128873
-0.130024
-0.130104
-0.129029
-0.127471
-0.126396
-0.126306
-0.12688
-0.127523
-0.127525
-0.127122
-0.126661
-0.126395
-0.126407
-0.126892
-0.127059
-0.126586
-0.126175
-0.126619
-0.12741
-0.127727
-0.127131
-0.12616
-0.125479
-0.125657
-0.126616
-0.127622
-0.127378
-0.12604
-0.124775
-0.124508
-0.124817
-0.125153
-0.125008
-0.124292
-0.12296
-0.121852
-0.121864
-0.123154
-0.12452
-0.124891
-0.123966
-0.122509
-0.121196
-0.120583
-0.12056
-0.120885
-0.121001
-0.121229
-0.122054
-0.123873
-0.125835
-0.126517
-0.124927
-0.122542
-0.121444
-0.122658
-0.12542
-0.127842
-0.12827
-0.127209
-0.126105
-0.125456
-0.125116
-0.125066
-0.124925
-0.124184
-0.123219
-0.122804
-0.123186
-0.123845
-0.124219
-0.124313
-0.124294
-0.123903
-0.12323
-0.123152
-0.1236
-0.123474
-0.122245
-0.120645
-0.119857
-0.120276
-0.120567
-0.118764
-0.113524
-0.105528
-0.0971002
-0.0918383
-0.091748
-0.0969406
-0.105771
-0.116804
-0.127564
-0.135372
-0.13825
-0.136588
-0.132208
-0.127927
-0.125495
-0.124599
-0.124064
-0.123828
-0.123915
-0.123409
-0.121938
-0.120654
-0.120369
-0.120805
-0.120996
-0.120443
-0.119245
-0.118373
-0.118412
-0.119521
-0.12084
-0.121338
-0.120747
-0.120414
-0.120885
-0.121935
-0.123005
-0.123787
-0.123083
-0.120861
-0.118046
-0.116335
-0.116311
-0.117645
-0.118591
-0.118794
-0.118871
-0.119443
-0.119913
-0.119831
-0.118733
-0.117045
-0.11552
-0.114903
-0.115054
-0.115814
-0.116503
-0.116386
-0.115618
-0.115143
-0.114634
-0.113975
-0.113807
-0.114156
-0.114116
-0.113942
-0.114226
-0.115068
-0.11541
-0.114558
-0.112838
-0.111548
-0.111251
-0.111928
-0.112588
-0.112405
-0.110926
-0.109218
-0.108213
-0.108481
-0.109313
-0.110246
-0.110554
-0.110269
-0.109596
-0.109251
-0.109382
-0.110161
-0.111012
-0.111228
-0.110748
-0.11067
-0.111554
-0.11304
-0.114232
-0.11473
-0.11478
-0.114742
-0.115144
-0.116048
-0.11647
-0.115719
-0.114838
-0.11515
-0.116613
-0.118382
-0.119115
-0.117913
-0.115253
-0.113013
-0.112319
-0.1131
-0.114426
-0.115062
-0.114111
-0.112584
-0.112128
-0.1138
-0.116401
-0.117752
-0.116253
-0.11337
-0.111439
-0.111741
-0.113215
-0.11487
-0.115648
-0.115425
-0.114647
-0.114422
-0.11444
-0.114001
-0.112583
-0.110948
-0.109661
-0.109065
-0.109254
-0.110471
-0.111989
-0.112892
-0.112668
-0.111686
-0.110303
-0.109305
-0.108907
-0.108994
-0.109254
-0.109969
-0.111
-0.112385
-0.113405
-0.113049
-0.110941
-0.108717
-0.107733
-0.1083
-0.109321
-0.110009
-0.109806
-0.109234
-0.108487
-0.108136
-0.108522
-0.109656
-0.109979
-0.108782
-0.106783
-0.105768
-0.106347
-0.108314
-0.110253
-0.110764
-0.109361
-0.107093
-0.105131
-0.104245
-0.104362
-0.105013
-0.105859
-0.106512
-0.106133
-0.104823
-0.103173
-0.10139
-0.099335
-0.097932
-0.0981064
-0.100363
-0.103715
-0.106507
-0.107221
-0.106365
-0.105045
-0.104464
-0.104872
-0.105978
-0.10652
-0.106595
-0.106754
-0.107401
-0.10789
-0.107948
-0.107094
-0.105561
-0.10394
-0.10311
-0.103249
-0.104096
-0.104987
-0.105629
-0.105669
-0.105056
-0.104112
-0.103428
-0.102968
-0.102567
-0.102144
-0.10183
-0.101864
-0.102996
-0.104936
-0.106029
-0.104639
-0.101056
-0.0957494
-0.0892556
-0.0821766
-0.0758081
-0.0712451
-0.0703241
-0.0743833
-0.0836413
-0.096112
-0.108352
-0.116176
-0.118019
-0.115216
-0.11054
-0.105866
-0.102423
-0.100343
-0.0994725
-0.0995351
-0.100566
-0.101839
-0.10235
-0.101894
-0.101256
-0.100812
-0.100456
-0.100279
-0.100608
-0.101205
-0.101342
-0.100463
-0.0990103
-0.0978131
-0.0975949
-0.09813
-0.0987259
-0.0984076
-0.097327
-0.0961238
-0.0958103
-0.0962136
-0.0967347
-0.0963181
-0.0954534
-0.0948613
-0.0953953
-0.0964296
-0.0970671
-0.096354
-0.0948984
-0.093643
-0.0933648
-0.0938875
-0.0947017
-0.094816
-0.0941896
-0.0933144
-0.0926975
-0.0922113
-0.0921327
-0.0921938
-0.091975
-0.0913843
-0.0911834
-0.0920106
-0.0937396
-0.0948059
-0.0939993
-0.0918818
-0.0901406
-0.0895227
-0.0901972
-0.0912165
-0.0915329
-0.0904345
-0.0885195
-0.0863303
-0.0851365
-0.0854298
-0.0867873
-0.0875673
-0.0872271
-0.0859998
-0.0850749
-0.0848028
-0.0851081
-0.0854143
-0.0860216
-0.0870164
-0.0880188
-0.0880951
-0.0877115
-0.0877325
-0.0887489
-0.0902944
-0.0918166
-0.0927854
-0.0935138
-0.09362
-0.0927926
-0.0913994
-0.0909292
-0.0916326
-0.0927409
-0.0928378
-0.091377
-0.0890661
-0.0880761
-0.0893073
-0.0917866
-0.0935993
-0.09386
-0.0925082
-0.0909259
-0.0900264
-0.0902895
-0.0913702
-0.0927384
-0.0930257
-0.0921298
-0.0905007
-0.0892933
-0.0889588
-0.089474
-0.0896255
-0.089263
-0.0888974
-0.0894433
-0.0903752
-0.0910881
-0.0909482
-0.0904454
-0.0896476
-0.0888269
-0.0881234
-0.0884019
-0.0891691
-0.0896485
-0.0890502
-0.0878934
-0.0869452
-0.086891
-0.0869492
-0.0863141
-0.0851088
-0.084716
-0.0858129
-0.0878762
-0.0891611
-0.0886998
-0.0866586
-0.0845824
-0.0833745
-0.0839088
-0.0859966
-0.0883517
-0.0888699
-0.0879099
-0.0867724
-0.0863691
-0.0862786
-0.086165
-0.0849015
-0.0831384
-0.0822126
-0.0829685
-0.0842545
-0.0853867
-0.0854939
-0.085084
-0.084796
-0.0845833
-0.0837193
-0.082941
-0.0824186
-0.0816452
-0.0804289
-0.0794563
-0.0790404
-0.0793505
-0.0797993
-0.0794892
-0.0778952
-0.0762094
-0.0758227
-0.0769703
-0.0782747
-0.0788596
-0.0785182
-0.078495
-0.0790605
-0.0797719
-0.0798026
-0.079793
-0.0800333
-0.0812749
-0.0831673
-0.0852764
-0.0866151
-0.0867285
-0.0847959
-0.0817399
-0.0789616
-0.0779869
-0.0788162
-0.0807764
-0.0820592
-0.0822386
-0.0817294
-0.0815538
-0.0817061
-0.0821335
-0.082192
-0.0815192
-0.0799052
-0.0782963
-0.077876
-0.0793419
-0.0815583
-0.0825736
-0.0812287
-0.07832
-0.0746936
-0.0707216
-0.0657117
-0.0589304
-0.0508853
-0.0455076
-0.0463501
-0.0544127
-0.0671454
-0.0806617
-0.0900509
-0.0934643
-0.0918888
-0.0886019
-0.0856171
-0.0838518
-0.082247
-0.0807155
-0.0794929
-0.0793877
-0.0796364
-0.0798676
-0.0796003
-0.0794159
-0.0795408
-0.0803124
-0.0809336
-0.0810579
-0.0803025
-0.0789608
-0.0769405
-0.0750479
-0.0740446
-0.0747728
-0.0761804
-0.0770964
-0.076777
-0.0762632
-0.076286
-0.0770698
-0.0776361
-0.0776374
-0.0766018
-0.0752413
-0.0742625
-0.0745389
-0.0752321
-0.0755484
-0.0743701
-0.0726685
-0.0720399
-0.0739351
-0.0766985
-0.0782945
-0.0769852
-0.0738819
-0.0708845
-0.0704626
-0.0724579
-0.075662
-0.0772733
-0.07623
-0.0727827
-0.0693939
-0.067677
-0.0685618
-0.0704064
-0.0718707
-0.0722471
-0.0724604
-0.0721811
-0.0715844
-0.0704611
-0.0693965
-0.0682564
-0.0677947
-0.0677661
-0.0683992
-0.0690189
-0.0698073
-0.0699967
-0.0699146
-0.0692606
-0.0686046
-0.0675247
-0.0667852
-0.0663318
-0.0667604
-0.0670007
-0.0668173
-0.0664572
-0.0675097
-0.0692638
-0.0712661
-0.0724603
-0.072969
-0.0722904
-0.0717617
-0.0717484
-0.0726466
-0.0731815
-0.0736098
-0.0737768
-0.0742275
-0.0741531
-0.0737038
-0.0728876
-0.0729446
-0.073921
-0.0755361
-0.076339
-0.0764684
-0.0760394
-0.075812
-0.0752981
-0.0749547
-0.0742552
-0.07343
-0.072241
-0.0721538
-0.0730879
-0.0748628
-0.0759394
-0.0762227
-0.0750966
-0.073983
-0.0734678
-0.0743612
-0.0749049
-0.0746805
-0.0732671
-0.0722389
-0.0717665
-0.0727298
-0.0741675
-0.0756156
-0.0751959
-0.0732149
-0.0704388
-0.0694227
-0.0703426
-0.0729311
-0.0747664
-0.0752334
-0.073793
-0.0721452
-0.0708272
-0.0713908
-0.0727731
-0.0741527
-0.0740347
-0.0735799
-0.0729078
-0.0730018
-0.0727655
-0.0722945
-0.0707199
-0.0697721
-0.0699369
-0.07227
-0.0746242
-0.0761031
-0.0750159
-0.0730567
-0.070903
-0.0705285
-0.0710328
-0.0723875
-0.0725025
-0.0722245
-0.0711351
-0.0709413
-0.0711001
-0.0723948
-0.0724937
-0.0718759
-0.070027
-0.069108
-0.0688413
-0.0701325
-0.0703151
-0.0697074
-0.0679358
-0.0674106
-0.0671541
-0.0681192
-0.0681036
-0.0677388
-0.0658518
-0.0649908
-0.0645914
-0.0661391
-0.0670494
-0.0680262
-0.067628
-0.0683024
-0.0682743
-0.0692143
-0.0691449
-0.0705449
-0.0714419
-0.0735006
-0.0735126
-0.0741204
-0.0733419
-0.0737559
-0.072196
-0.0720531
-0.070667
-0.071396
-0.0708206
-0.0727591
-0.0726574
-0.0739261
-0.0716457
-0.0714671
-0.0692247
-0.0722666
-0.0723657
-0.0753377
-0.0709681
-0.0731724
-0.0675937
-0.0775869
