Frequency,Nominal,Min,Max
195,0.0016168666707730881,-0.03317597798130388,0.03479045725011883
200,0.0016922725128183267,-0.034891304216293065,0.03657904316545674
205,0.0017689075296175554,-0.03664911087002767,0.038411265373758066
210,0.0018467436227750684,-0.03844931069920838,0.04028702804158532
215,0.0019257537281742645,-0.04029181313709965,0.04220623498622991
220,0.0020059118228771032,-0.04217652430378721,0.04416878968007493
225,0.0020871929273039,-0.04410334702111658,0.04617459525014939
230,0.0021695731031566396,-0.046072180832013414,0.0482235544733826
235,0.0022530294473773337,-0.04808292202382032,0.05031556976815625
240,0.002337540082533219,-0.05013546365553807,0.052450543182343656
245,0.0024230841439800647,-0.05222969558848287,0.05462837637853873
250,0.0025096417641220646,-0.05436550452034665,0.0568489706167516
255,0.002597194054179322,-0.05654277402205644,0.05911222673491202
260,0.0026857230836328854,-0.05876138457751494,0.06141804512771922
270,0.0028656442938803,-0.06332213560460438,0.06615696796311432
275,0.002957005195205615,-0.06566402199824506,0.0685898707701813
280,0.003049280224940951,-0.0680467413838043,0.07106493253132187
285,0.003142455878490766,-0.07047015948147728,0.07358205106814857
290,0.003236519455412335,-0.0729341392050754,0.07614112361243158
295,0.003331459030731097,-0.07543854071380846,0.07874204678072588
300,0.003427263426135027,-0.07798322146498034,0.08138471654941276
305,0.0035239221809093522,-0.08056803626733257,0.08406902823015065
310,0.0036214255229452255,-0.08319283733499502,0.0867948764458566
315,0.0037197643399535405,-0.08585747434180277,0.08956215510742811
320,0.0038189301509071005,-0.08856179447586757,0.09237075739125403
330,0.004019711818430815,-0.09408886077784051,0.09811150172965591
340,0.004223714245785694,-0.09977276610931153,0.10401623938307061
350,0.0044308895090599395,-0.10561220405933507,0.11008408723704344
360,0.004641197227980118,-0.1116058336619129,0.11631414859270961
370,0.004854603802982486,-0.11775228109225676,0.12270551268673684
390,0.005290608820275851,-0.13049797976390431,0.13596843330195282
400,0.005513167848077762,-0.13709433379202587,0.14283809457846874
410,0.005738745754027205,-0.14383771431662432,0.14986526758564206
420,0.005967333273313014,-0.15072660722919493,0.15704896627656645
432,0.006245602828531192,-0.15918318840927703,0.16587460709482857
445,0.006551937227969015,-0.1685753106411047,0.1756864003608026
458,0.006863343203512751,-0.17820409189237882,0.1857566786222538
475,0.007278230584948772,-0.19114676378506457,0.19931164749215297
488,0.0076013739544621255,-0.2013080772625907,0.20996947007195188
500,0.00790419638440579,-0.2108873229256211,0.22002995302360612
515,0.008288872961540648,-0.22312626316499923,0.23290287642489105
530,0.008680413638371584,-0.23565416657086047,0.24610253235478408
550,0.0092132107233882,-0.2527975203928393,0.2642034694349627
565,0.00962091711460572,-0.26597706219273376,0.2781499617272875
580,0.01003561821236534,-0.279426069135458,0.29240966550345854
600,0.010599500297875812,-0.29776696516345935,0.31190247794237197
615,0.011030667892014746,-0.3118215432745758,0.32687635756606687
630,0.01146894486167572,-0.3261256409237563,0.34214895258385014
645,0.011914352380631587,-0.34067321452354865,0.357715703232159
660,0.012366900967911883,-0.35545820053153265,0.3735719416175102
675,0.012826587142547578,-0.37047451946528664,0.38971288350043776
688,0.013230739309775263,-0.3836710770336887,0.40392820131773555
700,0.013608523676611414,-0.39599924213569915,0.41723372879921083
715,0.014087074375822663,-0.4116026475134133,0.4341094929980347
732,0.014637805618109878,-0.4295387976995335,0.4535566145719017
750,0.015230412550253675,-0.44881269866350054,0.47451115259426335
765,0.01573146291144592,-0.465088942694761,0.49225184345749395
780,0.01623879194609042,-0.48155384590426964,0.5102394057713401
800,0.016924403313409886,-0.5037900454552264,0.534595996919885
820,0.01761952076514524,-0.526336563555446,0.5593646793191339
840,0.018322750545723278,-0.5491792026005019,0.5845287310734568
860,0.019032270517876454,-0.572303901866184,0.6100701677480644
880,0.019745732486659742,-0.595696777474795,0.6359695272097721
900,0.02046014651180395,-0.6193441703058634,0.6622056182641584
920,0.021171744488351178,-0.6432327034269335,0.6887552280118898
940,0.021875819940897656,-0.6673493507925364,0.7155927822221053
960,0.022566540612910867,-0.6916815191456107,0.7426899523402509
980,0.02323673003675379,-0.716217145254307,0.7700152020138242
1000,0.023877613843596476,-0.740944810830144,0.7975332652362678
1020,0.024478526115564603,-0.7658538777004824,0.8252045473853452
1040,0.025026570597210154,-0.7909346460494979,0.8529844395808657
1060,0.025506231073250885,-0.8161785387980383,0.8808225359277486
1080,0.02589892469044208,-0.8415783154616756,0.908661742373199
1100,0.02618249146083628,-0.8671283191093868,0.9364372651308261
1120,0.026330612645063253,-0.8928247603384789,0.9640754659652788
1150,0.026229219579446027,-0.9316411897960769,1.0050889086656258
1180,0.025622242820009144,-0.9707899829406645,1.045268845311761
1200,0.0248572061681828,-0.9970840083782662,1.0713958566572483
1220,0.0237363908058282,-1.0235466246310603,1.0968336438519015
1250,0.021235275377408817,-1.0635931290823228,1.1333425240051096
1280,0.01749811520442432,-1.1041334110477805,1.1673023629330554
1300,0.014152418681315419,-1.1314873115247985,1.1881550137352783
1320,0.009983833307789403,-1.1591507397363767,1.2072755161577935
1350,0.00187821631282419,-1.2013402302083034,1.2320506370202642
1380,-0.008951952483745884,-1.2445580120872386,1.251096231911113
1400,-0.01801224046650898,-1.2740742343456914,1.2599446817642304
1420,-0.028811059130589824,-1.3042668743971535,1.265182558489602
1450,-0.0488482534688056,-1.35107835082382,1.2651395338448288
1480,-0.07440817050029958,-1.4001319322876318,1.253874559350493
1500,-0.09509879679792396,-1.4343518850585455,1.2390529655773999
1550,-0.16260820705470344,-1.5266713726377397,1.1710874346217515
1600,-0.25878343113833135,-1.635281782876309,1.0487910389467257
1650,-0.39265302715832817,-1.7645359155933522,0.8931813716485764
1700,-0.5746885185316086,-1.9178877077764545,0.6929651603492124
1750,-0.8162703555550714,-2.1277216489795316,0.49585993895474695
1800,-1.1287239352132477,-2.4942793444782256,0.23521538136005912
1850,-1.5219707038130517,-2.9339598676815153,-0.10733314374288384
1900,-2.0030212898624455,-3.4535441659129833,-0.5388395721082819
1950,-2.5747010057723463,-4.246097279227421,-1.0717672987155755
2000,-3.2350208990128024,-5.132421107836431,-1.672895109456701
2050,-3.9774230934450077,-6.08027423326485,-2.275788835151335
2100,-4.791813557977568,-7.074691629384057,-2.9056865207695948
2150,-5.666030642552846,-8.101914585948384,-3.5678615493678656
2200,-6.587323654352608,-9.150117639798044,-4.299007028767351
2250,-7.543527632162299,-10.20963838216159,-5.089722121860842
2300,-8.52380782543668,-11.272883622695499,-5.929484262606772
2350,-9.519001882041248,-12.334069551679834,-6.80768404742056
2400,-10.521665308536445,-13.388906346885072,-7.714396239457003
2450,-11.525937711784541,-14.434291094276572,-8.640843660522908
2500,-12.527324565924857,-15.468038940484476,-9.579593615356082
2550,-13.522457367781087,-16.48866173502625,-10.524562566754545
2600,-14.508867452237071,-17.495192652652015,-11.470905817997245
2700,-16.448999034095888,-19.463937679113748,-13.353527937778297
2750,-17.400682647904237,-20.425760946431723,-14.284781732845193
2800,-18.33933606703459,-21.372575573605594,-15.207040892163587
2850,-19.264685730932566,-22.30454160129868,-16.119183311566992
2900,-20.176628808747587,-23.221892379143437,-17.020435918807234
2950,-21.075187715238673,-24.12491124182897,-17.910293245281746
3000,-21.960475778496246,-25.01391436588245,-18.788453417200074
3050,-22.832671416163702,-25.889238207253698,-19.654768349029574
3100,-23.691998764594437,-26.751230330779133,-20.509205264103546
3150,-24.53871318367371,-27.60024275045058,-21.35181711643909
3200,-25.373090437468313,-28.436627128329892,-22.182719937608418
3300,-27.00599230220512,-30.072897115202757,-23.810078307993553
3400,-28.593060698325253,-31.66273980673605,-25.39290820069455
3500,-30.136639401788223,-33.20871511301565,-26.93309175155261
3600,-31.63899261473307,-34.71322468395835,-28.432597745193014
3700,-33.10227212628435,-36.17850837482622,-29.89338714080619
3900,-35.91958428157373,-38.99957863873859,-32.70633606672022
4000,-37.2772847297383,-40.359092409520734,-34.06202843430971
4100,-38.603255906564854,-41.68685491025379,-35.386054307751124
4200,-39.899035852555905,-42.984412250585144,-36.679929021734296
4320,-41.41613001760387,-44.503626047117415,-38.19477013212596
4450,-43.015564858727956,-46.10534146372109,-39.79179053852044
4580,-44.571751045197566,-47.66378706154796,-41.34558312138253
4750,-46.54554406180084,-49.64048633865125,-43.316279298523256
4880,-48.010907535993105,-51.10801758819384,-44.779308697057544
5000,-49.331621912607346,-52.430674335292565,-46.0979054046977
5150,-50.94166010971426,-54.04303579177078,-47.705364532496745
5300,-52.50870096731375,-55.61224912997837,-49.269927830490026
5500,-54.535214019439984,-57.641350446532975,-51.293352732699546
5650,-56.01064472251992,-59.11842736287746,-52.766679195637884
5800,-57.45004997142243,-60.55916377357317,-54.20421163831299
6000,-59.316087089644,-62.42637530067945,-56.06820095090627
6150,-60.67765806167258,-63.78828384826746,-57.42864869346849
6300,-62.00815628837316,-65.11856537537889,-58.75845015659002
6450,-63.30874211042521,-66.41829206066863,-60.05883868648552
6600,-64.58044112557158,-67.68839354435696,-61.33092007095294
6750,-65.8241510676108,-68.9296639580547,-62.57567955907916
6880,-66.87999575276294,-69.98262780607787,-63.633046639828244
7000,-67.83685774711097,-70.93612963773153,-64.5918789142729
7150,-69.00941020502906,-72.10343819944497,-65.7677428630175
7320,-70.3072577510179,-73.39379210921734,-67.07061713648426
7500,-71.64606122148405,-74.72266633567968,-68.4164023562625
7650,-72.73424250900351,-75.80085003491264,-69.51185509593566
7800,-73.79760721118613,-76.85251893360005,-70.58394481067047
8000,-75.17694334482796,-78.21342145034822,-71.97738747448848
8200,-76.51226746681517,-79.52685214075672,-73.32989906108791
8400,-77.80336857541728,-80.79242133710363,-74.64151893657139
8600,-79.04989321597539,-82.00967604877336,-75.91209842564166
8800,-80.25140208139399,-83.17817580688369,-77.1413386962886
9000,-81.40743335233908,-84.2975714856715,-78.32883549587693
9200,-82.51757047833567,-85.36768218434577,-79.4741303962038
9400,-83.58151089331402,-86.38856436766845,-80.57676729266174
9600,-84.59913118602424,-87.36056734389558,-81.63635190638743
9800,-85.57054375102611,-88.2843699750869,-82.65261110223447
10000,-86.49614012655766,-89.16099523602612,-83.62544814142103
10200,-87.37661716084682,-89.99180160529077,-84.55498971839447
10400,-88.21298375222125,-90.77845284985715,-85.44162091958421
10600,-89.00654792865765,-91.52287005809927,-86.28600512090046
10800,-89.75888610689339,-92.22717137142257,-87.08908721721517
11000,-90.47179812321207,-92.89360553848792,-87.85208023747616
11200,-91.14725276773412,-93.52448517299928,-88.57643705839094
11500,-92.09476543531183,-94.4091895255063,-89.59418743846611
11800,-92.96986615245658,-95.22663558582808,-90.53492396384468
12000,-93.51653482191767,-95.73771051249597,-91.12252273997132
12200,-94.03615555789256,-96.22389688645751,-91.68075597465729
12500,-94.7689401524243,-96.9102307290894,-92.46721579794465
12800,-95.45080758365201,-97.54949852806416,-93.19802002562005
13000,-95.87959769574607,-97.95166814149086,-93.65708227516022
13200,-96.28928603021902,-98.3359010044872,-94.09539313193393
13500,-96.87046988992725,-98.88061461864423,-94.71688404412168
13800,-97.4145106168215,-99.38963423116626,-95.29872277693548
14000,-97.75790977236323,-99.71018356868285,-95.66627164763396
14200,-98.08665111779584,-100.01628136735064,-96.01854953269387
14500,-98.55347802819912,-100.44921646957674,-96.51991759453226
14800,-98.99010279073354,-100.85542889449286,-96.99063878141467
15000,-99.26500869245275,-101.1094617643605,-97.2882573170638
15500,-99.89763987877416,-101.68645364108811,-97.97406899724875
16000,-100.45469580508615,-102.18304599791836,-98.58616216829397
16500,-100.93839606826735,-102.60177873086539,-99.12975749325965
17000,-101.35040455910199,-102.94484625518118,-99.606241877607
17500,-101.69223977614864,-103.21448893488505,-100.01665458449085
18000,-101.96556710252487,-103.41324753630997,-100.3619977189288
18500,-102.17239018345155,-103.54410286457151,-100.6434609536737
19000,-102.31515617490759,-103.61052178969759,-100.86257199507686
19500,-102.39678894668165,-103.61643079635255,-101.02128214619981
20000,-102.4206647332488,-103.56613809816268,-101.12199589132499
20500,-102.39054530718187,-103.46422440032869,-101.1675540657653
21000,-102.31048372349605,-103.31542019039824,-101.16118110561769
21500,-102.18471664666546,-103.12448411382037,-101.10640743313753
22000,-102.01755522742906,-102.89609302164308,-101.00697783054856
22500,-101.8132837461236,-102.6347502499683,-100.86675559622233
23000,-101.57607222158872,-102.34471511028772,-100.68963051895496
23500,-101.30990632160967,-102.02995375322428,-100.47943654949371
24000,-101.01853550856497,-101.69410962526945,-100.23988282633489
24500,-100.70543856735819,-101.34049061416896,-99.97449970324709
25000,-100.37380451026971,-100.97206952083754,-99.68659980717075
25500,-100.0265262583369,-100.59149451549992,-99.37925299918146
26000,-99.66620433595995,-100.20110655343358,-99.05527340405763
27000,-98.91544112512582,-99.39885278528989,-98.36738299276749
27500,-98.52886198461164,-98.9903394531028,-98.00783064144154
28000,-98.1370036104338,-98.57876779664473,-97.6403868785713
28500,-97.7412453624993,-98.16529651272747,-97.2666661046045
29000,-97.3427838039417,-97.75091848392533,-96.88808726084487
29500,-96.94265267527028,-97.33648106442539,-96.50589186201316
30000,-96.54174156248915,-96.92270445704891,-96.12116168937105
30500,-96.14081306496921,-96.51019818240398,-95.73483570184996
31000,-95.74051838540197,-96.0994757124696,-95.34772588372462
31500,-95.34141134583925,-95.69096738473328,-94.96053187059167
32000,-94.94396088829689,-95.28503173685607,-94.57385428639775
33000,-94.15554624082387,-94.48201178271492,-93.80402686527603
34000,-93.37771748857612,-93.69219370412245,-93.04149542718399
35000,-92.61214263868163,-92.91671972280155,-92.28857519355167
36000,-91.85991226851684,-92.15626555608733,-91.5468724133089
37000,-91.12168900034,-91.41116646675715,-90.81745977473463
39000,-89.68842127741809,-89.96721011982787,-89.39790001794863
40000,-88.99344104345113,-89.26804942751438,-88.7082835929269
41000,-88.31270681822774,-88.58372661270467,-88.03215424521835
42000,-87.64596085455298,-87.91388005496158,-87.36938703947659
43200,-86.86388144792457,-87.12860771405153,-86.59140475290886
44500,-86.03812394921493,-86.29991753347977,-85.76941022131949
45800,-85.23389554364726,-85.49319519090743,-84.96838173132821
