Frequency,Nominal,Min,Max
195,-21.785957951715734,-23.101065390180448,-20.493106920313306
200,-22.346130714275002,-23.695235186719675,-21.019886990269516
205,-22.906420110860594,-24.289542522619875,-21.546765388617878
210,-23.466828927299044,-24.883990715377337,-22.073744442093435
215,-24.02735995046558,-25.47858308618017,-22.600826476532422
220,-24.588015968953332,-26.073322960700022,-23.128013817426137
225,-25.148799773728165,-26.668213669861714,-23.655308790466943
230,-25.70971415876751,-27.26325855058993,-24.182713722084745
235,-26.270761921682222,-27.858460946531846,-24.710230939972593
240,-26.831945864320534,-28.453824208755687,-25.237862773600476
245,-27.39326879335338,-29.04935169642437,-25.765611554716386
250,-27.954733520840787,-29.64504677744507,-26.29347961783371
255,-28.51634286477905,-30.240912829094217,-26.82146930070468
260,-29.07809964962838,-30.83695323861872,-27.349582944779122
270,-30.202066875253337,-32.02957073357964,-28.406191503474844
275,-30.76428300175125,-32.62615464845281,-28.93469112340493
280,-31.32665794152819,-33.22292658112171,-29.46332411596907
285,-31.88919455861734,-33.81988997691884,-29.992092847465546
290,-32.45189572628984,-34.41704829429558,-30.520999690330154
295,-33.014764327456504,-35.014405005279684,-31.05004702349177
300,-33.57780325505339,-35.611963595915974,-31.579237232713947
305,-34.141015412413054,-36.209727566692294,-32.108572710923056
310,-34.704403713621474,-36.80770043295106,-32.63805585852383
315,-35.26797108386205,-37.40588572528862,-33.16768908370219
320,-35.83172045974701,-38.004286989942315,-33.69747480271636
330,-36.95977703395479,-39.20175170160657,-34.75751342931609
340,-38.08859716963338,-40.400123264770166,-35.81819124021367
350,-39.21820480250693,-41.599430649778746,-36.87952788332436
360,-40.3486240795965,-42.79970311151998,-37.94154316018691
370,-41.4798793677742,-44.00097020018618,-39.004257033083
390,-43.744996593398795,-46.406607999271905,-41.131861259795585
400,-44.87890843706403,-47.61103938210447,-42.196792400785405
410,-46.01375611999764,-48.81658675813537,-43.262503724235955
420,-47.149565228925084,-50.0232813140957,-44.32901609140877
432,-48.51384166426978,-51.47287350305858,-45.609917974702746
445,-49.99346459014636,-53.045244562206584,-46.99894027525844
458,-51.47486735320717,-54.619743791101584,-48.3894424473048
475,-53.41487034463449,-56.6820361086562,-50.21010425104339
488,-54.90060747185906,-58.261724925242696,-51.60420562288943
500,-56.27381201513049,-59.72200317204978,-52.89252380010819
515,-57.99276318105673,-61.55028546985801,-54.50494794324294
530,-59.714522202433365,-63.38194026660708,-56.11969671449597
550,-62.0147398831121,-65.8296047453557,-58.27644883888116
565,-63.74343855375984,-67.66960950856499,-59.89693348244012
580,-65.4752825043251,-69.51340570378575,-61.52001342236241
600,-67.78948363272237,-71.97792724438331,-63.688303320990244
615,-69.52908204261749,-73.83108962155008,-65.31777015887097
630,-71.27218760854439,-75.68849692130362,-66.95012021322879
645,-73.01891432239081,-77.55029295584944,-68.58544364297784
660,-74.7693789253382,-79.41662550107131,-70.22383250669593
675,-76.52370105920495,-81.28764653325193,-71.86538085787708
688,-78.04732864916377,-82.91311134957523,-73.29068603148868
700,-79.45647830044702,-84.41686077863206,-74.60857800111006
715,-81.22169593151617,-86.3011621625107,-76.25902775393378
732,-83.22751008262713,-88.44310318395479,-78.13380213878538
750,-85.35758639176638,-90.71872544807441,-80.1239597389524
765,-87.13775027717156,-92.62133812206224,-81.78656543091557
780,-88.92270531255404,-94.52984415613116,-83.45305418212624
800,-91.31035748814504,-97.08402642550244,-85.68127738334198
820,-93.7071616459201,-99.64952038325202,-87.91688682663847
840,-96.1135019417844,-102.22683549157429,-90.16017282217884
860,-98.52978004846159,-104.81650765784369,-92.41143718398061
880,-100.95641650856564,-107.41910136440721,-94.67099406890335
900,-103.3938521842378,-110.03521194186543,-96.93917087642325
920,-105.8425498061721,-112.66546798559746,-99.21630921194664
940,-108.30299562392993,-115.31053391244514,-101.50276591617312
960,-110.77570115823302,-117.97111265088671,-103.79891416267742
980,-113.26120505437365,-120.64794845353214,-106.10514462541225
1000,-115.76007503392437,-123.34182981521086,-108.421866717221
1020,-118.27290993949468,-126.05359247308374,-110.74950989966354
1040,-120.80034186427825,-128.7841224568775,-113.0885250634648
1060,-123.34303835446849,-131.53435914724608,-115.43938597766646
1080,-125.90170466816843,-134.30529828811981,-117.80259080404409
1100,-128.47708606905937,-137.09799488437923,-120.17866367150975
1120,-131.06997012666758,-139.91356589894156,-122.56815630298857
1150,-134.99394674676674,-144.18241416062855,-126.17883663402588
1180,-138.9621956407231,-148.50967143025406,-129.82311915844554
1200,-141.63388966710173,-151.42922225280594,-132.27241885825575
1220,-144.32773442331836,-154.37822650121763,-134.73836988603313
1250,-148.41242086340696,-158.86029463150842,-138.47017474546047
1280,-152.55328707776897,-163.4174423600602,-142.24385430621263
1300,-155.34711935667008,-166.5000334360566,-144.78433464126425
1320,-158.16906251545277,-169.6202279843168,-147.34563273394645
1350,-162.45764424971875,-174.3748635718708,-151.22872250107343
1380,-166.8172445151818,-179.2239800022016,-155.1642361122278
1400,-169.76551413688236,-182.51208329557662,-157.81881879590497
1420,-172.74900264143656,-185.84638937365963,-160.49943238838114
1450,-177.2935177859711,-190.93776143801037,-164.57170556486298
1480,-181.92556239872198,-196.14088155317273,-168.7092032305927
1500,-185.06456962922152,-199.67335377114617,-171.5058171391767
1550,-193.0997899621738,-208.73081524362988,-178.64039227426866
1600,-201.415600041997,-218.1063247917135,-185.99449574420458
1650,-210.0197302794953,-227.77340714807454,-193.5854608495434
1700,-218.90631236072608,-237.67716541946808,-201.42661971530993
1750,-228.0507032615154,-247.73212348389995,-209.5242682093556
1800,-237.40529972328525,-257.82606767145074,-217.87399459866242
1850,-246.89807240436872,-267.83065380466115,-226.45680590250342
1900,-256.43542754818225,-277.6167632880815,-235.23587183571797
1950,-265.9099422241956,-287.0702469753409,-244.15502265431854
2000,-275.2117267862449,-296.1034869690106,-253.14013079681118
2050,-284.24056317998884,-304.6602961016874,-262.10395167658055
2100,-292.9155970559744,-312.7145193510906,-270.9539341773622
2150,-301.1804870515457,-320.26457444091704,-279.60137574429336
2200,-309.0037633434616,-327.32649875010225,-287.96972890396444
2250,-316.3756271189113,-333.9273741473016,-296.00022421745405
2300,-323.30296742361224,-340.10005749988517,-303.6540305173959
2350,-329.8041202427907,-345.8794233129347,-310.9113093532701
2400,-335.904302307315,-351.29993605626174,-317.76821611711983
2450,-341.6320929295096,-356.39423516966144,-324.23302384718363
2500,-347.01696912279607,-361.19242123320174,-330.3222817496757
2550,-352.0877219611423,-365.7217926123573,-336.0575330320172
2600,-356.8715337027638,-370.0068516888882,-341.4627852643154
2700,-365.67652895635456,-377.9290601144033,-351.3814894016624
2750,-369.7412245062049,-381.6029331491934,-355.94205229020594
2800,-373.6061354378401,-385.1064398866338,-360.26574848401975
2850,-377.2878581415374,-388.4532572054973,-364.3721671479434
2900,-380.8012375298207,-391.65558817239815,-368.27912825260506
2950,-384.1595552454601,-394.72434901718253,-372.0027527921513
3000,-387.374707984018,-397.6693327813524,-375.55757842255053
3050,-390.4573708746405,-400.49935137595145,-378.95669558894804
3100,-393.4171440403924,-403.22235829749434,-382.2118887118443
3150,-396.26268228999635,-405.84555436556207,-385.3337733723466
3200,-399.0018088796704,-408.37547874935467,-388.3319245801704
3300,-404.1885448557212,-413.17882039085504,-393.99081419291775
3400,-409.02676714062574,-417.67418451857856,-399.2484982635902
3500,-413.5577257592288,-421.89680985749953,-404.1545571979417
3600,-417.8162129936959,-425.8766988943638,-408.7504026409956
3700,-421.8318585974064,-429.63962709980296,-413.07095958089525
3900,-429.23304988021687,-436.6010587659841,-421.00091866350215
4000,-432.65988898425303,-439.83615749177096,-424.65793973178523
4100,-435.92754217367,-442.92834384403767,-428.1362841739621
4200,-439.05095202235844,-445.89106552520656,-431.45286405892136
4320,-442.62724392104246,-449.29226982682627,-435.2401451756587
4450,-446.31215825726747,-452.8073483833321,-439.1305942569142
4580,-449.8220619475374,-456.16617614327134,-442.8244917686484
4750,-454.18054366836395,-460.3527820512699,-447.3944336828647
4880,-457.3584278404099,-463.41722824693227,-450.71382863519733
5000,-460.1870914833208,-466.1539998514466,-453.6588821427551
5150,-463.5980146567952,-469.46627653200255,-457.19745154842457
5300,-466.88742126353657,-472.673993719986,-460.5960235461708
5500,-471.11271080332165,-476.8151180386607,-464.9401637358919
5650,-474.18022397988176,-479.83707214437857,-468.0780426385798
5800,-477.17535523136536,-482.80098821720594,-471.12833494012153
6000,-481.0765543439595,-486.68195789992814,-475.08055946615247
6150,-483.9470159752938,-489.5526922611622,-477.9731115879791
6300,-486.78072442971427,-492.3994528763855,-480.8155679575743
6450,-489.586528126075,-495.2307017182531,-483.6171934044027
6600,-492.37258157881774,-498.0542120512868,-486.3865261507823
6750,-495.14640333201777,-500.8771085345097,-489.1314525552471
6880,-497.5458555560019,-503.3281629665443,-491.4962985432916
7000,-499.76081140754735,-505.59795183099413,-493.67165431425013
7150,-502.53434780917775,-508.4493316135351,-496.3856827638725
7320,-505.6905846338678,-511.7055790302666,-499.4615698548283
7500,-509.0549552988026,-515.1884120446424,-502.72671980668304
7650,-511.881443677814,-518.1224978760381,-505.46014446493723
7800,-514.7325665950258,-521.0882779443524,-508.2095153021243
8000,-518.5774693205456,-525.0951396652952,-511.9066558117492
8200,-522.4767627179003,-529.1640419398906,-515.6464575297273
8400,-526.4336836015627,-533.2948588168936,-519.4348127830217
8600,-530.449251373393,-537.4848924939291,-523.275796417695
8800,-534.522193565186,-541.7289007167732,-527.171559861659
9000,-538.6489283354151,-546.0192264540759,-531.1222433957754
9200,-542.8236248632209,-550.3460440193431,-535.1259250542121
9400,-547.0383577472962,-554.6977236011153,-539.1786246172471
9600,-551.2833633360948,-559.0613014737769,-543.2743790139368
9800,-555.5473949908453,-563.4230284173757,-547.4054007011512
10000,-559.8181620538845,-567.7689569849776,-551.5623232703983
10200,-564.0828258406663,-572.0855218193601,-555.7345293021409
10400,-568.328517541151,-576.3600677135106,-559.910545594633
10600,-572.5428392988357,-580.5812873932143,-564.0784820054156
10800,-576.7143117259474,-584.7395433674837,-568.2264839515204
11000,-580.8327382480426,-588.8270629289703,-572.3431663835958
11200,-584.8894673794359,-592.8380096017174,-576.4179992432248
11500,-590.8441472154386,-598.7027318251613,-582.4316780982455
11800,-596.6286357115923,-604.380722421326,-588.3048823980919
12000,-600.3862371865862,-608.0627789224869,-592.1332109071974
12200,-604.064089351243,-611.6642942594916,-595.8877141519991
12500,-609.4332503610513,-616.9218749347925,-601.377266368935
12800,-614.6314779885141,-622.0167552878648,-606.6956738722837
13000,-618.0069290887503,-625.3298002670832,-610.1480838342435
13200,-621.3145121575953,-628.5810640374773,-613.5284517864369
13500,-626.1571877780516,-633.3516219287823,-618.4702514764989
13800,-630.8695514049107,-638.0071758837314,-623.2676679522762
14000,-633.9454300751427,-641.0535740470534,-626.3918192229067
14200,-636.973272886866,-644.0583623570853,-629.4610588576742
14500,-641.432927484432,-648.4946443158675,-633.9701153105067
14800,-645.8040582192749,-652.8543989570422,-638.3761688416732
15000,-648.6739597811951,-655.7224510809915,-641.2619348409675
15500,-655.7124744765953,-662.7719152538165,-648.3177282866983
16000,-662.5810346678898,-669.7592368899883,-655.1787367612034
16500,-669.3011456121733,-676.667347056236,-661.8760551822184
17000,-675.8843713118272,-683.4103766995496,-668.2949282600044
17500,-682.3338806170007,-689.9867937444526,-674.5816497708942
18000,-688.646198791655,-696.3894832715845,-680.7616804986226
18500,-694.8130132178129,-702.6078000862367,-686.8305939231022
19000,-700.8229193585614,-708.6294352097927,-692.7796674175189
19500,-706.6630160467246,-714.4420015928993,-698.5973526331177
20000,-712.3202797807623,-720.0342821320116,-704.2706350586652
20500,-717.7826709297631,-725.3971202035896,-709.7862288200658
21000,-723.0399504579564,-730.5239664879973,-715.131566128704
21500,-728.0842111633725,-735.4111221844925,-720.2955579951819
22000,-732.9101490732224,-740.0577354566816,-725.269121666489
22500,-737.5151160045573,-744.465614772321,-730.0454878528698
23000,-741.8990023736503,-748.6389211865547,-734.6203147515472
23500,-746.0640006143087,-752.5837940743407,-738.9916447556059
24000,-750.0142955671,-756.307954071274,-743.1597433372625
24500,-753.7557208767437,-759.8203153701756,-747.1268586379804
25000,-757.2954116466634,-763.1306287001074,-750.8969360469965
25500,-760.6414748142462,-766.249167226731,-754.4753159064761
26000,-763.8026908870189,-769.1864606106762,-757.868435688202
27000,-769.607554896369,-774.5594534528385,-764.1284878698546
27500,-772.2699995396907,-777.0157596847166,-767.0114210559985
28000,-774.7848710594044,-779.3318067600611,-769.7406960311604
28500,-777.1612201882605,-781.5169777905331,-772.324677069174
29000,-779.4077859880555,-783.5801855465382,-774.7716286831642
29500,-781.5329401040234,-785.5298486564571,-777.089623715369
30000,-783.5446505184243,-787.3738826468505,-779.2864748252581
30500,-785.450460912796,-789.1197022467722,-781.3696856756189
31000,-787.2574822594564,-790.7742320063269,-783.3464183469281
31500,-788.9723937810287,-792.3439228439936,-785.22347385612
32000,-790.6014509059034,-793.8347726273427,-787.0072830514215
33000,-793.6249863460748,-796.6018154596461,-790.3190348214807
34000,-796.3702293345577,-799.115190193607,-793.3258170959654
35000,-798.8736423246527,-801.4090384450918,-796.0662893476091
36000,-801.1666690372957,-803.5125792551353,-798.5741156619721
37000,-803.2763792025062,-805.4508100845599,-800.8785076852776
39000,-807.0357783231989,-808.9138738220822,-804.9747860536951
40000,-808.7227950383999,-810.4727891883706,-806.8075236330625
41000,-810.3020259090431,-811.9354182781896,-808.5193989937063
42000,-811.7863622865218,-813.3134384779876,-810.1246561632321
43200,-813.4579254742551,-814.8694929598737,-811.927538875067
44500,-815.1517735686464,-816.4512967264856,-813.7486757986472
45800,-816.7411250851762,-817.9404902243322,-815.4517015436229
