Frequency,Nominal,Min,Max
1.95,-89.63653404963277,-92.18721947386203,-84.11808742792203
2,-89.6090934632012,-92.23128024831308,-83.9689068133317
2.05,-89.58037621259685,-92.27445597554453,-83.81984775228835
2.1,-89.55036200214685,-92.31672790173036,-83.67091294125568
2.15,-89.5190312638731,-92.35807750184067,-83.52210505314011
2.2,-89.48636516111081,-92.39848648287546,-83.37342673692406
2.25,-89.4523455914153,-92.43793678696295,-83.22488061731089
2.3,-89.41695518877039,-92.47641059432304,-83.07646929438276
2.35,-89.38017732511214,-92.513890326093,-82.92819534327155
2.4,-89.34199611117752,-92.55035864702053,-82.78006131384296
2.45,-89.3023963966974,-92.58579846802141,-82.6320697303942
2.5,-89.26136376994597,-92.62019294860353,-82.48422309136305
2.55,-89.21888455666247,-92.65352549915983,-82.33652386905231
2.6,-89.17494581836405,-92.68577978312861,-82.18897450936574
2.7,-89.0826416774134,-92.74698948233974,-81.8943350279967
2.75,-89.0342540532888,-92.77591350732054,-81.74724966393947
2.8,-88.9843624538344,-92.80369648861542,-81.60032367732148
2.85,-88.9329575739885,-92.83032338280044,-81.45355937855845
2.9,-88.88003082250536,-92.85577940978429,-81.30695905036063
2.95,-88.82557431649509,-92.88005005409063,-81.16052494756127
3,-88.76958087550054,-92.9031210660245,-81.01425929695638
3.05,-88.712044015129,-92.9249784627223,-80.86816429715861
3.1,-88.65295794026088,-92.94560852908802,-80.72224211846247
3.15,-88.59231753785247,-92.96499781861912,-80.57649490272327
3.2,-88.53011836935293,-92.98313315412256,-80.43092476324745
3.3,-88.40102930430561,-93.0155906043792,-80.14032402299729
3.4,-88.26566841601151,-93.04288086911824,-79.85045622980287
3.5,-88.12402362414518,-93.06490827504015,-79.56133725401354
3.6,-87.97609279801067,-93.08158149158143,-79.27298250283941
3.7,-87.8218834411597,-93.09281353042732,-78.9854069196783
3.9,-87.4947053329367,-93.09862779248927,-78.41265071279152
4,-87.32179673902395,-93.09305767218017,-78.12749766044902
4.1,-87.14272921994102,-93.08174165146491,-77.84317892223854
4.2,-86.957553305312,-93.06461426888154,-77.55970713614819
4.32,-86.72736136914105,-93.03630450630652,-77.22067609298709
4.45,-86.46828775365567,-92.99597967229123,-76.85481193697998
4.58,-86.19928641970431,-92.9455028835412,-76.49044784243326
4.75,-85.83283875685476,-92.86400995093672,-76.01627357328495
4.88,-85.54164468005759,-92.789738832894,-75.6554576777428
5,-85.26461795271015,-92.71191393119693,-75.32379180633086
5.15,-84.90750374304542,-92.60204458252245,-74.91111626971045
5.3,-84.53870325583848,-92.47811428642478,-74.50058520296572
5.5,-84.02946834638617,-92.29089861169552,-73.95659051727006
5.65,-83.63494747298093,-92.13395491439638,-73.55116001865439
5.8,-83.23010273477314,-91.9628200026276,-73.14795240119498
6,-82.67500640080978,-91.71256879421153,-72.61383357067992
6.15,-82.24778587402989,-91.50835469842919,-72.21588565769054
6.3,-81.81172838275295,-91.29002044379486,-71.8202191190798
6.45,-81.36729286488782,-91.05762468113406,-71.42684797050269
6.6,-80.91494096404011,-90.81124269572268,-71.03578471199565
6.75,-80.45513538820703,-90.55096608122871,-70.6470403922052
6.88,-80.05096535259143,-90.31423655245945,-70.31201191392702
7,-79.67348369620093,-90.08659407035088,-70.00431202754817
7.15,-79.19605577367395,-89.78983348868537,-69.62179520482859
7.32,-78.64801783551299,-89.43728484191239,-69.1911149600476
7.5,-78.0603878384024,-89.04547087230867,-68.73839592156293
7.65,-77.56545730041427,-88.70462327717246,-68.3637238757934
7.8,-77.06622664244188,-88.35095230216743,-67.99141268753682
8,-76.39462983143012,-87.85980965598527,-67.49867290779078
8.2,-75.71712468162163,-87.34678253589526,-67.01013435651136
8.4,-75.03466192983342,-86.81244849533243,-66.52579567397817
8.6,-74.34815883166864,-86.25742460690354,-66.04565299432882
8.8,-73.65849730480826,-85.68236583411215,-65.56970013533913
9,-72.96652245820577,-85.08796329330747,-65.09792877721765
9.2,-72.27304147902885,-84.47494239265106,-64.6303286305162
9.4,-71.5788228494634,-83.84406083720582,-64.16688759335385
9.6,-70.88459586591168,-83.19610649199001,-63.70759189823085
9.8,-70.1910504336708,-82.53189509793555,-63.252426248774
10,-69.49883711085828,-82.02157917039004,-62.73331602873897
10.2,-68.80856737614698,-81.52981052093641,-62.13689531594606
10.4,-68.12081409577623,-81.0280014307341,-61.54401099086986
10.6,-67.43611216630642,-80.516595040461,-60.954922538647516
10.8,-66.7549593106713,-79.99604337090517,-60.369873592185634
11,-66.07781700624199,-79.46680610954446,-59.789091977980405
11.2,-65.40511152483636,-78.92934939453089,-59.21278984363552
11.5,-64.40522126164873,-78.10878510876033,-58.22190560849271
11.8,-63.41737496322143,-77.27239517513465,-57.177688305455774
12,-62.76601651798382,-76.7068086075181,-56.49122874502688
12.2,-62.120740148812736,-76.13538771331795,-55.81284190712311
12.5,-61.16474934818353,-75.26836564311344,-54.81091644675162
12.8,-60.22368327129876,-74.39090469703679,-53.82837190714536
13,-59.604889414275604,-73.80091856497793,-53.18437966596341
13.2,-58.99313391550762,-73.20746684605935,-52.54936714413497
13.5,-58.088962267366455,-72.31179509453519,-51.613897943518566
13.8,-57.20123565189301,-71.41087982479105,-50.69909409478485
14,-56.61867891929163,-70.80808902880992,-50.10077625849486
14.2,-56.04359469540194,-70.20405295077987,-49.511721043592466
14.5,-55.19505830417518,-69.2965720063309,-48.64549874041569
14.8,-54.363487927859346,-68.38858269754031,-47.80004160886036
15,-53.81854012203439,-67.78361833322565,-47.247873319382705
15.5,-52.489086667708456,-66.2751442851668,-45.90716357167313
16,-51.20627310595769,-64.97233160545628,-44.622205786736586
16.5,-49.96936628265846,-63.839217557504014,-43.39151062493648
17,-48.777392596349024,-62.714137575329346,-42.21334968965161
17.5,-47.62919573055572,-61.5992464102105,-41.08582796286048
18,-46.52348520069847,-60.4964832699399,-40.006943418470534
18.5,-45.45887673156391,-59.407573583719135,-38.97463529820891
19,-44.43392547905383,-58.334033730142515,-37.98682256824301
19.5,-43.44715306467663,-57.27717822772253,-37.04143401752866
20,-42.49706931966702,-56.23812889910443,-36.13643134708946
20.5,-41.58218955002916,-55.21782554565778,-35.26982645925961
21,-40.70104804298597,-54.217037705204625,-34.4396940056211
21.5,-39.8522084452499,-53.236377108979795,-33.64418010391527
22,-39.03427155802505,-52.276310501488126,-32.88150799491943
22.5,-38.24588101493234,-51.33717253608769,-32.14998128410871
23,-37.485727238217876,-50.41917850770366,-31.447985301550947
23.5,-36.75255000597726,-49.522436730376725,-30.773987017088047
24,-36.04513990852488,-48.646960410153355,-30.12653386571837
24.5,-35.36233892496288,-47.79267890234188,-29.50425176897895
25,-34.7030403107987,-46.959448275972036,-28.90584258057982
25.5,-34.0661879533894,-46.14706113727754,-28.330081137051845
26,-33.450775323310694,-45.35525568828438,-27.775812055284547
27,-32.280482736011564,-43.832119626661964,-26.72745821634058
27.5,-31.72382448675153,-43.10006424037275,-26.231381260360397
28,-31.1850458607044,-42.38715389294073,-25.752805527579486
28.5,-30.663364631660144,-41.692964369888585,-25.29087406208552
29,-30.15803798706224,-41.01705602416219,-24.84477980217104
29.5,-29.668360658185694,-40.35897802003788,-24.413762568603566
30,-29.193663077729166,-39.718272049707814,-23.997106193077915
30.5,-28.73330957972302,-39.094475568249315,-23.59413579239924
31,-28.28669665268055,-38.487124591452755,-23.20421519030075
31.5,-27.853251253732125,-37.89575609912418,-22.82674448606577
32,-27.432429188941835,-37.31991008418804,-22.461157767108865
33,-26.626613299857187,-36.21297063833167,-21.763529823194325
34,-25.86541527717488,-35.162745520877316,-21.107405517013852
35,-25.145371153547107,-34.165806559530736,-20.489278796535018
36,-24.463347186460343,-33.21888108419475,-19.906012320002915
37,-23.81650451863983,-32.31886537018714,-19.354792937891727
39,-22.618296688531395,-30.64802581976601,-18.338636341134798
40,-22.062462078226417,-29.871871611503142,-17.869369524133134
41,-21.53282305054013,-29.131958548774165,-17.423435690293143
42,-21.027607900878316,-28.426038377486034,-16.999152570091425
43.2,-20.451318222928112,-27.620865656365783,-16.516451373309884
44.5,-19.861126605119754,-26.7965642167349,-16.023480501031283
45.8,-19.30359971402738,-26.01837023298839,-15.559042709072951
47.5,-18.619518885386043,-25.06446040444908,-14.990798313299072
48.8,-18.127877026623977,-24.379698288885656,-14.583480193310427
50,-17.696298558998375,-23.77924963047768,-14.226645874768577
51.5,-17.18459105633819,-23.06821859659121,-13.80441527269731
53,-16.701354651802028,-22.39774186875033,-13.406509741019821
55,-16.09739927240773,-21.56126358148389,-12.910308314206057
56.5,-15.672083466791058,-20.973275034378744,-12.561592658289289
58,-15.268466948881258,-20.416157941862146,-12.23120250019035
60,-14.761305632378726,-19.71738170674697,-11.816771997312108
61.5,-14.402322920963183,-19.22365497183374,-11.523898299273506
63,-14.060241336297121,-18.753879588054378,-11.24516791089291
64.5,-13.733899290574895,-18.306377256959006,-10.97957763736873
66,-13.422238587778907,-17.87961907942175,-10.726216887355124
67.5,-13.124293259115912,-17.472209877865666,-10.484257260281959
68.8,-12.876483344378238,-17.13378450979818,-10.283195669275857
70,-12.655830371140706,-16.832777562731447,-10.104305490826293
71.5,-12.390337326827384,-16.471018287950912,-9.889230615093215
73.2,-12.10248659300207,-16.079312825020658,-9.65624767422795
75,-11.811809533278746,-15.684312007423284,-9.421187468225751
76.5,-11.579944295803596,-15.369629144113178,-9.23383443974664
78,-11.35692755446197,-15.067290051411408,-9.05375262607627
80,-11.072483040322789,-14.682151792914683,-8.824238022327293
82,-10.801812084534287,-14.316159959267724,-8.606008851972799
84,-10.54393803877057,-13.96792220844865,-8.398249003780872
86,-10.297974222089298,-13.636177127873818,-8.200219295314877
88,-10.063113827378993,-13.319779364327298,-8.011248616477971
90,-9.838621151935481,-13.01768670526309,-7.830726268140248
92,-9.623823954687552,-12.72894882488431,-7.658095312132612
94,-9.418106775390422,-12.452697454341335,-7.492846780401426
96,-9.220905077932962,-12.188137773468176,-7.334514616693823
98,-9.03170010193836,-11.93454085309786,-7.18267124499679
100,-8.850014325004397,-11.691237003311096,-7.036923676029436
102,-8.675407452966352,-11.457609904919604,-6.896910077131622
104,-8.507472868056213,-11.233091419831549,-6.762296742486557
106,-8.34583447524568,-11.017156991321787,-6.632775410226626
108,-8.190143895771794,-10.809321558144365,-6.508060880967783
110,-8.040077964155845,-10.609135917301625,-6.387888898995085
112,-7.895336491182913,-10.416183479466554,-6.27201426291679
115,-7.687602144478894,-10.139478267490658,-6.105765815532953
118,-7.490360920423857,-9.8769898759594,-5.947973989688209
120,-7.364308950064676,-9.70936123582193,-5.847162278067899
122,-7.242361731070046,-9.547280425153195,-5.749654379757976
125,-7.066707670116371,-9.31397040260903,-5.609238186908332
128,-6.89923038944421,-9.091687608373457,-5.475395840219647
130,-6.791842815566795,-8.94924313242073,-5.389593765644439
132,-6.687686038327289,-8.81114694160098,-5.306386502275849
135,-6.537195419184002,-8.61172744812281,-5.186187352536721
138,-6.393199770577978,-8.421033573448085,-5.071199973340168
140,-6.300605380008436,-8.298471492686103,-4.997270956325955
142,-6.210599341075873,-8.179380884807896,-4.92541723956092
145,-6.080209801970875,-8.006936133200758,-4.821339252229936
148,-5.955064867592665,-7.841514710054475,-4.7214633024345
150,-5.874393614281834,-7.734925256487584,-4.6570888566061495
155,-5.681749713474559,-7.4805297211464,-4.5033855412091865
160,-5.50104655326115,-7.242081947176623,-4.359237637293916
165,-5.331201608622747,-7.018118862233711,-4.223774307184732
170,-5.171259509134079,-6.80735146508247,-4.096227674332175
175,-5.0203739108082175,-6.608639668140375,-3.9759180351091605
180,-4.877792381782608,-6.4209713812589735,-3.8622415493667415
185,-4.742843733301553,-6.243445025525395,-3.75465993798394
190,-4.61492734675257,-6.075254838369186,-3.6526918155803743
195,-4.493504139386051,-5.915678463603386,-3.55590536328798
200,-4.378088882619359,-5.764066422326697,-3.463912105836584
205,-4.268243642502789,-5.619833140249158,-3.3763616034605213
210,-4.16357215570602,-5.482449269416496,-3.2929369054182325
215,-4.0637149890268995,-5.35143509153643,-3.2132768654986323
220,-3.9683453579998313,-5.226354829175151,-3.1368611052220405
225,-3.877165502255007,-5.106811722272179,-3.0638352733080705
230,-3.789903533044832,-4.99244375244508,-2.99397625401518
235,-3.706310682724486,-4.8829199177438705,-2.9270802399409814
240,-3.6261588976553187,-4.777936976883933,-2.8629606813611006
245,-3.54923872553999,-4.677216595322067,-2.801446491987311
250,-3.47535745602447,-4.580502836455014,-2.74238047443021
255,-3.4043374798495356,-4.487559950191733,-2.6856179345497355
260,-3.336014837167773,-4.398208101420861,-2.6310254587284274
270,-3.2068663780684963,-4.230160163007316,-2.5278670791687716
275,-3.1457699983331824,-4.150646699718159,-2.4790816107457223
280,-3.0868278951502384,-4.07392843982506,-2.4320254639942855
285,-3.0299276451565618,-3.9998603242271127,-2.386607623625576
290,-2.974964566829329,-3.928307197624039,-2.3427434144697665
295,-2.921841064234456,-3.8591429777242503,-2.300353956751501
300,-2.8704660363791272,-3.792249906532271,-2.259365676644079
305,-2.820754344646386,-3.727517874426807,-2.2197098656592376
310,-2.772626331759294,-3.664843808920961,-2.1813222832748203
315,-2.7260073865534364,-3.6041311210105555,-2.1441427979250154
320,-2.6808275495510956,-3.5452892028904635,-2.1081150620969265
330,-2.594526505139403,-3.4328824536038147,-2.0393066292066013
340,-2.513243738847685,-3.3270019739605154,-1.9745113490235393
350,-2.436554407110539,-3.2270965872660295,-1.9133878624944312
360,-2.364080692332195,-3.1326758135060513,-1.855632874904441
370,-2.2954854442297137,-3.043301718822559,-1.8009759622399173
390,-2.168753784165039,-2.8781643765077236,-1.7000135089395367
400,-2.1101022003847123,-2.801731207887997,-1.653295463318826
410,-2.0542916048574256,-2.7289956891374434,-1.6088446894840625
420,-2.001122361535389,-2.6596980050059282,-1.5665015528733273
432,-1.9405518607988599,-2.580748085020224,-1.5182688621752358
