Frequency,Nominal,Min,Max
1.08,-0.0011176570709172514,-0.04564867877877003,0.043394263768132234
1.1,-0.001150060700684171,-0.0473325818711881,0.04502042099059944
1.12,-0.0011823713731963616,-0.049045739599331006,0.04667670950353786
1.15,-0.0012305825126842978,-0.051670136890608676,0.04921767140009005
1.18,-0.001278375076209647,-0.054359858859997806,0.0518265141255429
1.2,-0.0013099403832540135,-0.05618914648476601,0.05360348003148169
1.22,-0.0013412230118503394,-0.058047237547698624,0.05541065421641972
1.25,-0.0013875299234810262,-0.060888173874846595,0.05817809084849113
1.28,-0.0014329749083308832,-0.06379338137279258,0.06101358625465805
1.3,-0.0014627240308872174,-0.06576572953414503,0.06294175412377095
1.32,-0.0014919862187664549,-0.06776639618084122,0.06490021129499965
1.35,-0.0015348732592118588,-0.07082027217432657,0.0678947259020271
1.38,-0.0015764228509260753,-0.07393729130249974,0.0709574855322859
1.4,-0.0016033062020967504,-0.07605020975971312,0.07303726743553364
1.42,-0.0016294843094847363,-0.07819092927426305,0.07514742299354663
1.45,-0.0016673298906754927,-0.08145390054846335,0.07836964459104646
1.48,-0.0017033314550864457,-0.08477881535154115,0.08166030409748891
1.5,-0.001726230204930348,-0.08702965415911375,0.08389212722752114
1.55,-0.0017792722985855549,-0.09277573266138175,0.08960498854378544
1.6,-0.0018257010376056299,-0.09869035168968836,0.09550850439517576
1.65,-0.0018647414520879362,-0.10477168157819161,0.10160295257842052
1.7,-0.0018955992014393571,-0.11101784851587407,0.10788861208370185
1.75,-0.0019174610527413712,-0.11742693572036506,0.1143657623129557
1.8,-0.0019294953722066733,-0.12399698462907047,0.12103468226336692
1.85,-0.001930852629645464,-0.1307259961063132,0.12789564967497968
1.9,-0.0019206659157768916,-0.13761193166499983,0.134948940141343
1.95,-0.001898051472353328,-0.14465271470157853,0.1421948261818967
2,-0.0018621092350148607,-0.15184623174283057,0.14963357627506066
2.05,-0.0018119233886752422,-0.15919033370310823,0.157265453850565
2.1,-0.0017465629355533938,-0.1666828371508525,0.16509071623982774
2.15,-0.0016650822755846654,-0.17432152558282793,0.17310961358294014
2.2,-0.001566521799250707,-0.1821041507050028,0.18132238769082767
2.25,-0.0014499084927449809,-0.19002843371854883,0.18972927086112287
2.3,-0.0013142565554346984,-0.19809206660990214,0.1983304846461338
2.35,-0.0011585680295097725,-0.2062927134434986,0.20712623857141638
2.4,-0.0009818334418684454,-0.21462801165598788,0.21611672880312438
2.45,-0.0007830324581549163,-0.22309557335075647,0.22530213676251018
2.5,-0.0005611345489274688,-0.23169298659160673,0.2346826276858014
2.55,-0.0003150996679975624,-0.2404178166943531,0.2442583491274404
2.6,-0.00004387894287623267,-0.24926760751534285,0.25402942940491524
2.7,0.0005783554335697437,-0.2673321471405267,0.27415807379613294
2.75,0.0009315045770490304,-0.276541887891384,0.28451578350432705
2.8,0.0013141090828150816,-0.28586657579211305,0.2950691396846059
2.85,0.001727251171816695,-0.29530366654604207,0.305818148951414
2.9,0.0021720174922813954,-0.30485060200428415,0.3167627880062535
2.95,0.002649498343342376,-0.3145048114040735,0.3279030016131329
3,0.0031607868861192353,-0.3242637125962875,0.3392387004976196
3.05,0.0037069783421130624,-0.3341247132614344,0.3507697591667327
3.1,0.004289169178790963,-0.3440852121133332,0.36249601364710754
3.15,0.004908456282292242,-0.35414260008972953,0.37441725913863577
3.2,0.005565936116981646,-0.36429426152926553,0.3865332475808233
3.3,0.006999852592919591,-0.38486991611746446,0.41134822953649164
3.4,0.008599649107864782,-0.4057911624067244,0.43693801155883866
3.5,0.010373993360989119,-0.4270369541487718,0.4632987820300141
3.6,0.012331460934255545,-0.4485862472342023,0.49042577062911985
3.7,0.01448050503973328,-0.4704180335035314,0.5183131462962862
3.9,0.019386335459048075,-0.514845427497146,0.5763397661634951
4,0.022159130156129084,-0.537399486674209,0.6064610193382269
4.1,0.025155450411389474,-0.5601530012590453,0.637306417210957
4.2,0.028382648065914014,-0.5830856087940638,0.6688630178892264
4.32,0.03256991057001066,-0.6108127877881224,0.7076487661244639
4.45,0.0375059318607336,-0.6410690282767685,0.7507640008588632
4.58,0.042870809148880376,-0.6715106424478616,0.7949779507746263
4.75,0.0505534151643036,-0.7115286993367237,0.8543689091312618
4.88,0.05695155608452248,-0.742238991039454,0.9009122625631913
5,0.06326816918023812,-0.7706320370319029,0.9446761521433039
5.15,0.07172625923303567,-0.8061365746667738,1.0003641911992278
5.3,0.08081526485590086,-0.8416019857005161,1.057014042617366
5.5,0.09391930363159523,-0.8887325086412965,1.1337634749324035
5.65,0.10448287735191616,-0.9238941918073158,1.191994781221479
5.8,0.11566782136578406,-0.9588402415617924,1.2505600425942764
6,0.1315221220798801,-1.0050173751406741,1.328735522886066
6.15,0.14409070303787885,-1.039278998930448,1.3870657010463996
6.3,0.15720811574910387,-1.0731758761549492,1.444780911170337
6.45,0.17083727129612994,-1.1066690598481077,1.5015202185983056
6.6,0.1849329069178165,-1.1397224006974935,1.5568834098513853
6.75,0.19944091657026167,-1.1723026147609885,1.6104290956365577
6.88,0.21229915288798928,-1.2001325564205925,1.6549921955057765
7,0.22435981694402976,-1.2254704976263622,1.6942986966791997
7.15,0.23962807546811427,-1.2566488309979043,1.740513181594336
7.32,0.25707979397783565,-1.2912946716639686,1.7882562095933805
7.5,0.2755633595787454,-1.3271508879475862,1.8324373679576875
7.65,0.2908226986035602,-1.356362351300198,1.8634105966392824
7.8,0.3058062210902985,-1.3849536686742483,1.9206726003596186
8,0.325090570645509,-1.422097712142826,1.9947273821771894
8.2,0.3432094091859279,-1.458116994075739,2.063417800997041
8.4,0.35970699454735183,-1.4930143578614299,2.1253440682227227
8.6,0.37407303333682385,-1.5326296178861094,2.178975493024025
8.8,0.38574110129984635,-1.6003230878928063,2.222664151360253
9,0.3940880209036409,-1.6718777878333257,2.254667419304212
9.2,0.3984344765215847,-1.7476818177322824,2.273180478309122
9.4,0.39804716994344314,-1.8281318479299866,2.276379263377307
9.6,0.39214282652955224,-1.9136286218849667,2.262473369995428
9.8,0.3798943483201117,-2.0045719199135346,2.290453678585334
10,0.36043936759581985,-2.1013550467932895,2.3686122937505223
10.2,0.3328913761971878,-2.204358936067053,2.44164822361507
10.4,0.29635348784262705,-2.3139459941425002,2.5082598337446815
10.6,0.24993473202520827,-2.430453835743464,2.5670270746872252
10.8,0.1927685836911046,-2.5541890864896915,2.616423651127709
11,0.12403321470877332,-2.6854214458451056,2.6548368087366376
11.2,0.042972730567956016,-2.82437821205313,2.680595673421724
11.5,-0.10316144541122546,-3.1993461574888835,2.69181207595395
11.8,-0.28029081042830145,-3.751268947285147,2.6652085837164643
12,-0.4161769527489224,-4.129289396484553,2.623955726907445
12.2,-0.5664940182778672,-4.513503033120551,2.5623942580064356
12.5,-0.8189599616726384,-5.098290199745347,2.4298574496101315
12.8,-1.1031418730623717,-5.689439061548712,2.2473504974067455
13,-1.3095394629514046,-6.085248507050183,2.0976727438048757
13.2,-1.528827679104299,-6.481341007086581,1.9259372193342381
13.5,-1.880391085819622,-7.07430655444559,1.6285505479304545
13.8,-2.256696575701956,-7.663932625157363,1.2866765552503987
14,-2.519854313216341,-8.054287279261201,1.077524218357705
14.2,-2.791775749107755,-8.441967857002634,0.9808262751388895
14.5,-3.2140717586442005,-9.017748234184454,0.8110631439150523
14.8,-3.6509476048913747,-9.585866091879323,0.6114965342581055
15,-3.9488484082354725,-9.960028762424812,0.46208064940840515
15.5,-4.7110317153644585,-10.878448181265412,0.033496237668410346
16,-5.489296591380071,-11.771689621077845,-0.4674155072614137
16.5,-6.274422654937007,-12.639350656253367,-0.8555457557025326
17,-7.059231064662431,-13.481625971767617,-1.2259506088514365
17.5,-7.838340420611038,-14.2990879419344,-1.643696201071343
18,-8.607856832326172,-15.092537169556845,-2.104045481757049
18.5,-9.36506648657495,-15.862901921795736,-2.6012594742546606
19,-10.108163850428584,-16.611171283154746,-3.1291086899807685
19.5,-10.836026713542706,-17.338351360285664,-3.6813292954985943
20,-11.548037563207146,-18.04543715371533,-4.251975293495171
20.5,-12.243945594862609,-18.733395025157712,-4.835651587331502
21,-12.923762109356202,-19.403152293519085,-5.427637762032624
21.5,-13.587682280853395,-20.055591595149266,-6.023925646838428
22,-14.236027236464812,-20.69154839789968,-6.621197100811154
22.5,-14.869201524371512,-21.311810573309987,-7.216765739487806
23,-15.487662112372265,-21.917119282620263,-7.808500966293365
23.5,-16.09189596134653,-22.50817067233404,-8.39474700286103
24,-16.682403942303672,-23.085618039199854,-8.974244794881853
24.5,-17.259689428180415,-23.650074236834797,-9.546061073626714
25,-17.824250319707257,-24.20211417315762,-10.109526414961309
25.5,-18.376573586419763,-24.742277300471322,-10.664182622613163
26,-18.91713164373985,-25.27107003603107,-11.209738909327262
27,-19.964756258618955,-26.296418577889863,-12.27301661515437
27.5,-20.472678838791055,-26.793842213131786,-12.790702628459265
28,-20.97054748796215,-27.28163506795792,-13.299175631281976
28.5,-21.458743164727952,-27.760170414071908,-13.798562323009463
29,-21.937628548097486,-28.229800342735437,-14.289022625533175
29.5,-22.40754863897842,-28.690857273066122,-14.770740368352826
30,-22.86883146091606,-29.14365534186389,-15.243915978804027
30.5,-23.32178881802921,-29.588491683203028,-15.708760771100232
31,-23.76671707984319,-30.025647606032173,-16.16549250661452
31.5,-24.203897971425178,-30.45538967779386,-16.614331962678364
32,-24.6335993536649,-30.87797072170305,-17.05550029996593
33,-25.471570245763523,-31.702597733957067,-17.915698667737608
34,-26.28252352869916,-32.501309470039516,-18.747800141032343
35,-27.068176654756545,-33.275718597664394,-19.55343865040869
36,-27.83009042875814,-34.027290118390034,-20.334153847910006
37,-28.569686482749162,-34.75735888214482,-21.09138526118062
39,-29.987006679851103,-36.15776482326661,-22.540657717603136
40,-30.66700774699905,-36.830246023818596,-23.235092707442337
41,-31.329267211906433,-37.485533379198664,-23.910843120668133
42,-31.974707563701724,-38.12449916088832,-24.56889577251218
43.2,-32.72822933610993,-38.87084529068701,-25.33648019263893
44.5,-33.52015844812452,-39.655657022771905,-26.14243571398033
45.8,-34.2882470677679,-40.41723663005829,-26.923411339704867
47.5,-35.25904823499176,-41.38033478665989,-27.909526634971765
48.8,-35.977342405058955,-42.09328489519275,-28.638479563805145
50,-36.62297106229944,-42.73435404992033,-29.29322112773661
51.5,-37.40780313483731,-43.51393879303362,-30.088559266857338
53,-38.16935614700787,-44.270693664368544,-30.859733438912773
55,-39.15089030600208,-45.24644437310112,-31.852879031646054
56.5,-39.86323190924621,-45.95485447581637,-32.573120851886344
58,-40.55640841656316,-46.64440736910552,-33.273582479401504
60,-41.452583376117445,-47.5361763367036,-34.178618552658435
61.5,-42.10487225638667,-48.18544505030075,-34.83698246343115
63,-42.74109971310138,-48.81887007683717,-35.47884710677489
64.5,-43.362049194374215,-49.437214442133275,-36.105036551690596
66,-43.96844769390884,-50.041187048861445,-36.716313902354536
67.5,-44.56097109177968,-50.631447707143124,-37.31338720789091
68.8,-45.063755618552186,-51.132392062473684,-37.81987118729083
70,-45.519367022437905,-51.58639679453535,-38.27871195275766
71.5,-46.077854690152364,-52.14299090174853,-38.84100469671679
73.2,-46.696613496091345,-52.759745384404496,-39.46378991633252
75,-47.33609157408537,-53.39725066019988,-40.10722968237168
76.5,-47.85722830159983,-53.91685047990579,-40.631451687310346
78,-48.36812702680466,-54.42630160259162,-41.14525548426947
80,-49.03408697009509,-55.09045867554675,-41.814832100577284
82,-49.68343823503532,-55.738139440520875,-42.46753305616896
84,-50.31699944591756,-56.37014985680504,-43.10420260132756
86,-50.93552989164287,-56.98723802841221,-43.72562265868783
88,-51.53973515584224,-57.590099631488194,-44.33251886045358
90,-52.13027209133039,-58.179382717669945,-44.92556586736819
92,-52.70775322883207,-58.755691977833166,-45.5053920699931
94,-53.2727506957968,-59.3195925375972,-46.07258375677732
96,-53.82579970948164,-59.871613345149434,-46.627688820196376
98,-54.36740169884711,-60.41225020298142,-47.17122006133897
100,-54.898027101800494,-60.941968487648836,-47.7036581442849
102,-55.41811787763088,-61.46120559540493,-48.22545424409596
104,-55.92808976886995,-61.97037314629288,-48.73703242595504
106,-56.428334342090324,-62.46985897484035,-49.23879178771334
108,-56.91922083316305,-62.96002893173794,-49.73110839366239
110,-57.401097819112394,-63.44122851768678,-50.21433702359224
112,-57.874294735826695,-63.913784367874854,-50.688812758010684
115,-58.56849222576982,-64.60708285698777,-51.38480305783709
118,-59.244840454508534,-65.28260042757799,-52.06280723953773
120,-59.686274456441396,-65.72351525349984,-52.505275964359804
122,-60.120432731800484,-66.15717991146488,-52.94041782653561
125,-60.758549302892426,-66.79460040451445,-53.57992108338209
128,-61.381592717224976,-67.41699653498534,-54.20425363849973
130,-61.78893225899013,-67.82392944091363,-54.612402876780166
132,-62.19008522111621,-68.22469426915757,-55.01432857628434
135,-62.78062445977035,-68.81468360356172,-55.60596242757786
138,-63.35826605597454,-69.39181106460788,-56.18462723499814
140,-63.73647376761612,-69.76969437998498,-56.56348044979303
142,-64.10935670225348,-70.14226664207362,-56.93698151075715
145,-64.65902497573022,-70.69149298576865,-57.48752895343944
148,-65.19753226220371,-71.22958516167364,-58.02686194128289
150,-65.55056138027089,-71.58235138183004,-58.380413938654954
155,-66.41313944623163,-72.44431650979794,-59.24421093125787
160,-67.24861790215695,-73.27923904971212,-60.08079475763992
165,-68.05868230656786,-74.08879772040551,-60.89186464763308
170,-68.84486590774611,-74.87451992762891,-61.67896552069781
175,-69.60856744943447,-75.6377994001255,-62.443506133055344
180,-70.35106644460849,-76.3799113265297,-63.1867746267401
185,-71.07353633806638,-77.10202540680052,-63.90995191557627
190,-71.77705589910542,-77.80521715407767,-64.61412326023725
195,-72.46261912280107,-78.49047772133089,-65.3002883192896
200,-73.13114386851916,-79.15872247821517,-65.96936991135512
205,-73.78347942437262,-79.81079852432708,-66.62222168218241
210,-74.42041315419574,-80.44749129345593,-67.25963483719588
215,-75.04267635758366,-81.0695303778094,-67.88234407322933
220,-75.6509494523522,-81.67759468032034,-68.49103282131634
225,-76.24586657142842,-82.27231698604473,-69.08633789456096
230,-76.8280196519135,-82.85428802958619,-69.66885362045174
235,-77.39796208226696,-83.4240601238445,-70.23913552487943
240,-77.95621196377232,-83.98215040571696,-70.79770362508467
245,-78.50325503428104,-84.52904374631632,-71.34504538040358
250,-79.03954729539971,-85.06519536651356,-71.88161834269059
255,-79.56551737854201,-85.5910331929341,-72.40785254242896
260,-80.08156868042298,-86.10695998474158,-72.92415264159371
270,-81.08541376115528,-87.11057702682402,-73.9284538395024
275,-81.57390465723643,-87.59896339204158,-74.4171540432434
280,-82.05387404144929,-88.07883397666427,-74.897321412851
285,-82.52562477190067,-88.5504912414428,-75.3692595939136
290,-82.98944370863072,-89.01422168301572,-75.8332561664428
295,-83.44560281315273,-89.47029693001267,-76.28958375125097
300,-83.89436015539444,-89.91897474695777,-76.73850102293545
305,-84.33596083725206,-90.36049995513261,-77.18025363878502
310,-84.77063784091585,-90.79510527851224,-77.61507509185576
315,-85.19861280920779,-91.22301212197767,-78.04318749553339
320,-85.62009676437137,-91.64443128821132,-78.46480230608763
330,-86.44438654858861,-92.46860070594298,-79.28933563432605
340,-87.24500692219051,-93.26911181145348,-80.09017766581047
350,-88.02332522801586,-94.04733070131805,-80.86869820104931
360,-88.78059146136854,-94.80450629369302,-81.6261493565466
370,-89.51795124475915,-95.54178327581475,-82.3636785935829
390,-90.93707807561847,-96.96076486173098,-83.78310412647065
400,-91.62070858878893,-97.64433158837846,-84.46686651346167
410,-92.2881756040104,-98.31173994328753,-85.13445523990964
420,-92.94024536281135,-98.9637556759169,-85.78663750127282
432,-93.70340263072256,-99.72685361607833,-86.54991880042915
445,-94.50760313183402,-100.53099589222553,-87.35424155925101
458,-95.28963397282668,-101.31297407335575,-88.13638344157451
475,-96.28083731400615,-102.30411587462075,-89.12771709030538
488,-97.0161578747174,-103.03939425783341,-89.86312723837412
500,-97.67844406456639,-103.70164479474931,-90.52548925764312
515,-98.48519306706183,-104.50835311770177,-91.33232475130146
530,-99.26969870435846,-105.292821826792,-92.11690866161223
550,-100.28315405450678,-106.30623283483617,-93.1304572031249
565,-101.02023295364879,-107.04328151442579,-93.86759866809913
580,-101.73868563908967,-107.76170608773182,-94.5861084288806
600,-102.66920647866147,-108.69219201461891,-95.51669790466417
615,-103.34761029213867,-109.37057107398742,-96.19514831687637
630,-104.01016122338886,-110.03309807316897,-96.85774221969822
645,-104.65756660793964,-110.68047999880739,-97.50518740064467
660,-105.29048581643113,-111.31337588214055,-98.13814364632964
675,-105.90953465779194,-111.93240119883993,-98.75722715142186
688,-106.43527034872739,-112.45811608522727,-99.2829912435705
700,-106.91200806970895,-112.93483406358904,-99.75975403127751
715,-107.4967891373976,-113.51958946169829,-100.34456514037431
732,-108.14514815402804,-114.16791766009783,-100.9929568364855
750,-108.81568489537989,-114.83841924376803,-101.66352706132645
765,-109.36244588944325,-115.38514853053033,-102.21031543307264
780,-109.89870726619307,-115.92137562949601,-102.74660401065614
800,-110.5980394240006,-116.62065744828391,-103.4459726393659
820,-111.28021449085927,-117.3027760473527,-104.128185004102
840,-111.94601459688133,-117.96851260944524,-104.79402388190907
860,-112.59616947336585,-118.61859587041614,-105.44421965437662
880,-113.23136119655003,-119.25370685814299,-106.07945505652822
900,-113.85222838442702,-119.87448308472564,-106.70036937824909
920,-114.45936992164783,-120.48152226694297,-107.30756219336547
940,-115.05334827587743,-121.07538563830046,-107.90159667982444
960,-115.63469245931714,-121.65660090634952,-108.48300258474966
980,-116.20390068106451,-122.22566490092615,-109.05227888009568
1000,-116.76144272926632,-122.78304595224542,-109.60989614789965
1020,-117.30776211639538,-123.32918603216751,-110.15629872849516
1040,-117.84327801625216,-123.86450268722419,-110.69190666031864
1060,-118.3683870173062,-124.3893907880129,-111.21711743594658
1080,-118.88346471362325,-124.90422411619663,-111.73230759562895
1100,-119.38886715176592,-125.40935680749443,-112.23783417672351
1120,-119.88493214962831,-125.90512466661974,-112.73403603500421
1150,-120.6122193007778,-126.6319100836782,-113.46155471482085
1180,-121.3202318445049,-127.33934684561517,-114.1698337516597
1200,-121.78200077966525,-127.80068676030484,-114.63180182169388
1220,-122.23588673892371,-128.2541045708493,-115.08590561260213
1250,-122.90247991038682,-128.9199161944223,-115.75286360250986
1280,-123.55269455389865,-129.56924543901553,-116.40349312427973
1300,-123.97744099562695,-129.9933388274229,-116.82854653210866
1320,-124.39544743479266,-130.41063821598397,-117.24688614194642
1350,-125.01025190689914,-131.02427341072482,-117.86224326433015
1380,-125.61097095369043,-131.6236819569708,-118.46358387441335
1400,-126.00391993573939,-132.01567250820932,-118.8569887015251
1420,-126.3910400475499,-132.40176173636334,-119.24460018066794
1450,-126.9611383308556,-132.97016870479356,-119.81550674712084
1480,-127.51898995732871,-133.5261418810161,-120.37425880514535
1500,-127.88432536132001,-133.8901133693223,-120.74024958055391
1550,-128.77565732234277,-134.77760939803974,-121.63343086965585
1600,-129.63709658804208,-135.6345390544583,-122.49705402283485
1650,-130.47041558254702,-136.4625877900619,-123.33293634971396
1700,-131.27721736450442,-137.26326475570437,-124.14272982202593
