Frequency,Nominal,Min,Max
1.08,-0.16339982031718442,-0.20574469248372124,-0.1243144174024847
1.1,-0.16642577120061547,-0.2095551671490008,-0.12661649620645532
1.12,-0.16945173450129353,-0.2133656974445995,-0.12891857557223094
1.15,-0.17399070539322437,-0.21908160622435927,-0.13237169624889664
1.18,-0.17852971125856143,-0.22479766401188267,-0.13582481971801172
1.2,-0.18155573684656065,-0.22860845956183912,-0.1381269040769466
1.22,-0.18458178143067172,-0.23241933295263498,-0.14042899043978746
1.25,-0.18912088717915723,-0.23813579988453204,-0.14388212446880688
1.28,-0.19366004425279085,-0.24385247064305265,-0.14733526493232302
1.3,-0.1966861802031984,-0.24766370677185334,-0.1496373627654941
1.32,-0.19971234313245112,-0.25147504733974324,-0.15193946440486328
1.35,-0.2042516420105887,-0.2571922669196721,-0.15539262489348013
1.38,-0.20879101184824006,-0.26290975539198,-0.15884579630166906
1.4,-0.21181730105841065,-0.26672157439762284,-0.16114791738723558
1.42,-0.21484362674380064,-0.2705335291594837,-0.16345004447040032
1.45,-0.21938318825375416,-0.2762517309035449,-0.16690324741167695
1.48,-0.22392284388541636,-0.28197027758952814,-0.17035646666541357
1.5,-0.2269493370379044,-0.2857828460149998,-0.17265862278450944
1.55,-0.2345157834698684,-0.29531503743781656,-0.17841405199846744
1.6,-0.24208256630923167,-0.3048484312516315,-0.18416954424344556
1.65,-0.24964972709832758,-0.3143831621523799,-0.18992510942852125
1.7,-0.2572173102437099,-0.32391937369171253,-0.19568075820386321
1.75,-0.26478536309691403,-0.333457218513313,-0.20143650198252502
1.8,-0.27235393603449887,-0.3429968585860871,-0.20719235296212013
1.85,-0.2799230825373573,-0.35253846543421535,-0.21294832414637666
1.9,-0.28749285926928925,-0.362082220364049,-0.2187044293665692
1.95,-0.29506332615482217,-0.3716283146878421,-0.22446068330282648
2,-0.3026345464562815,-0.3811769499443123,-0.23021710150531016
2.05,-0.31020658685009506,-0.39072833811602925,-0.23597370041526577
2.1,-0.3177795175023294,-0.400282701843627,-0.24173049738594155
2.15,-0.3253534121434551,-0.4098402746368412,-0.24748751070337455
2.2,-0.3329283481423302,-0.4194013010823808,-0.25324475960704257
2.25,-0.34050440657940306,-0.4289660370486299,-0.2590022643103771
2.3,-0.3480816723191316,-0.43853474988719376,-0.2647600460211409
2.35,-0.35566023408161096,-0.4481077186312902,-0.270518126961664
2.4,-0.36324018451341233,-0.45768523419099316,-0.27627653038893957
2.45,-0.3708216202576319,-0.4672675995453375,-0.28203528061457644
2.5,-0.3784046420231434,-0.4768551299312832,-0.28779440302460835
2.55,-0.3859893546530614,-0.48644815302954664,-0.29355392409915876
2.6,-0.39357586719240767,-0.49604700914729516,-0.2993138714319594
2.7,-0.4087547495894651,-0.5152636458763684,-0.31083516093135777
2.75,-0.4163473591446668,-0.5248821718345481,-0.3165965640270625
2.8,-0.42394224813406645,-0.5345080218492517,-0.3223585152772314
2.85,-0.4315395475995024,-0.5441416019901051,-0.32812104813124154
2.9,-0.439139393174096,-0.5537833319829972,-0.3338841972660742
2.95,-0.446741925144386,-0.563433645370452,-0.3396479986047908
3,-0.45434728851167605,-0.5730929896686812,-0.3454124893348526
3.05,-0.46195563305259635,-0.5827618265212593,-0.351177707926295
3.1,-0.4695671133788843,-0.5924406318493505,-0.3569436941497425
3.15,-0.4771818889963759,-0.6021298959984085,-0.362710489094277
3.2,-0.48480012436322195,-0.6118301238812508,-0.3684781351851495
3.3,-0.5000476572829182,-0.6312655641685636,-0.38001615729297156
3.4,-0.5153111290120628,-0.6507512885584817,-0.39155812726208883
3.5,-0.5305920392554198,-0.6702918744794636,-0.4031044343680672
3.6,-0.5458919722725941,-0.6898921448008646,-0.41465549091308385
3.7,-0.5612125985509862,-0.7095571713868141,-0.4262117327560839
3.9,-0.5919230536520219,-0.7491030446929754,-0.44934163666836957
4,-0.6073166689084032,-0.7689953071059179,-0.46091629287443014
4.1,-0.6227385532619354,-0.788975161502921,-0.47249812364428934
4.2,-0.6381908315595985,-0.8090489645919372,-0.4840876902326045
4.32,-0.6567768179997154,-0.8332708774322766,-0.49800621092033515
4.45,-0.6769693067857955,-0.8596885733078744,-0.5130993748172448
4.58,-0.697227019044331,-0.886306144669774,-0.528209293017383
4.75,-0.7238257447290113,-0.9214430724659088,-0.5479962239814669
4.88,-0.7442560620513587,-0.9485865372128971,-0.5631507156164134
5,-0.7631901591822217,-0.9738702404181179,-0.5771590281677379
5.15,-0.7869676323569215,-1.0058061931552398,-0.5946980116616236
5.3,-0.8108771064110172,-1.038138362616146,-0.6122714619758933
5.5,-0.8429810913962265,-1.0819180399586223,-0.6357616184264336
5.65,-0.8672428456428447,-1.1152969240254091,-0.6534275823339744
5.8,-0.8916758137325782,-1.1491786099183319,-0.6711387636730952
6,-0.9245417884840317,-1.1951937995345383,-0.6948302185486255
6.15,-0.9494252545339502,-1.2303781424051268,-0.7126611103321373
6.3,-0.9745248443942054,-1.2661760483124063,-0.7305497983930757
6.45,-0.9998550751038625,-1.3026198314227053,-0.7485004241292793
6.6,-1.0254309064377687,-1.3397405897226082,-0.7665173014815363
6.75,-1.0512677093935217,-1.3775676421790473,-0.7846049181176031
6.88,-1.073882862327248,-1.4109432682259562,-0.8003416719005121
7,-1.0949518933593978,-1.442253930220405,-0.8149208865232707
7.15,-1.1215624466691503,-1.4820870426498935,-0.833220410471069
7.32,-1.1521089671997389,-1.5281837434395005,-0.8540673714177096
7.5,-1.1849274411586026,-1.5781115419080467,-0.876273401774661
7.65,-1.2126698620810326,-1.6206019447664026,-0.8948894895365903
7.8,-1.240787915359736,-1.6638908896558129,-0.9136126210003772
8,-1.2788913037780083,-1.7228266311029476,-0.9387534871474982
8.2,-1.3177295513860923,-1.783097476329278,-0.9641094983883373
8.4,-1.3573388271511972,-1.8446113169687512,-0.9896955398137005
8.6,-1.3977527681325237,-1.9072410055448685,-1.0155269761338508
8.8,-1.4390015838880135,-1.970823817120471,-1.0416196211607773
9,-1.4811110502940872,-2.0351627298279675,-1.067989699837402
9.2,-1.5241013999206179,-2.100029744188105,-1.094653801750158
9.4,-1.5679861240624535,-2.1651712686762306,-1.1216288249640525
9.6,-1.6127707112656435,-2.230315364007088,-1.1489319089278243
9.8,-1.6584513584578664,-2.2951803992843334,-1.1765803551161271
10,-1.7050137030443449,-2.3594844761137237,-1.204591534012442
10.2,-1.7524316366318984,-2.422954864645763,-1.2329827769986945
10.4,-1.8006662720593631,-2.4853366939742414,-1.261771251715153
10.6,-1.8496651434454598,-2.54640024873231,-1.2909738194987113
10.8,-1.899361722096588,-2.6059464190191473,-1.3206068736125816
11,-1.949675327460504,-2.66381008961585,-1.3506861571607014
11.2,-2.0005115003723364,-2.719861490125089,-1.3812265598521896
11.5,-2.0775075421805287,-2.800342071846677,-1.427931619852061
11.8,-2.1550263331494746,-2.8763546573871204,-1.4757457071558417
12,-2.2067743439189793,-2.9245213983828906,-1.5082540993079392
12.2,-2.2584145392997605,-2.9706973529983705,-1.5412766548780776
12.5,-2.3353630644416756,-3.0363080927574115,-1.591783265410931
12.8,-2.4112816616169575,-3.0976940684084004,-1.6434582080384508
13,-2.461102887002693,-3.1363788568469695,-1.67855089463714
13.2,-2.5101506827466276,-3.173356593627542,-1.7141479336287053
13.5,-2.582039835895387,-3.2257890333000194,-1.7684596079728045
13.8,-2.6516403057762616,-3.2748122535840287,-1.8238136809315972
14,-2.6966482484084864,-3.305727883382299,-1.861254307060967
14.2,-2.7404781061869006,-3.3353170598834505,-1.8990895500869929
14.5,-2.803930476518148,-3.3773695573010585,-1.9565024717917583
14.8,-2.864563918063537,-3.4168270570575414,-2.014580863465023
15,-2.9034054544833983,-3.4417961880958536,-2.0535902803525756
15.5,-2.995021882842357,-3.499966991359125,-2.151740318094981
16,-3.079040533725225,-3.5527133357473075,-2.250052911908838
16.5,-3.1559197692818497,-3.600746780615073,-2.3475674479102646
17,-3.226222180707798,-3.6446724822797125,-2.443334302590774
17.5,-3.2905472015845545,-3.68500389264822,-2.536484696435687
18,-3.349487170897623,-3.722176761909945,-2.626286450246419
18.5,-3.403601541360743,-3.7565616134640694,-2.712177959530476
19,-3.4534037913408167,-3.788474460777182,-2.793778681038321
19.5,-3.4993565677960383,-3.8181858251776037,-2.8708796307015785
20,-3.5418717897722978,-3.845928235290439,-2.9434203098642198
20.5,-3.5813134962183977,-3.8719024248758585,-3.011458938543911
21,-3.6180020207332353,-3.8962824410236943,-3.075141647205794
21.5,-3.6522186328435913,-3.919219852592176,-3.134674368981246
22,-3.6842101527198468,-3.94084722140159,-3.1902993449512453
22.5,-3.7141932783314466,-3.9612809716814237,-3.2422767817259692
23,-3.7423585051981503,-3.9806237690260424,-3.290871352452605
23.5,-3.7688736012967197,-3.9989664993961513,-3.336342816698194
24,-3.793886645305681,-4.016389921487203,-3.3789399110148666
24.5,-3.8175286596104714,-4.032966051715963,-3.418896704597309
25,-3.839915879512495,-4.048759329691238,-3.4564307332184567
25.5,-3.8611517025885913,-4.063827602874033,-3.4917423644400034
26,-3.881328360603682,-4.078222961782393,-3.525014978939873
27,-3.9188256755242756,-4.105178678158463,-3.5860962069240454
27.5,-3.936286877175843,-4.117820333543674,-3.614194232010134
28,-3.9529719663806655,-4.129952641374043,-3.6408343965646957
28.5,-3.9689351936130253,-4.141607747021915,-3.6661295684897617
29,-3.984225726256308,-4.1528150539074336,-3.6901819551969943
29.5,-3.998888232646844,-4.163601516451518,-3.71308415918742
30,-4.012963388616403,-4.173991895793697,-3.734920150142993
30.5,-4.026488317895363,-4.184008983700415,-3.7557661503190944
31,-4.039496975967587,-4.193673799207637,-3.7756914346432957
31.5,-4.05202048547817,-4.203005761816369,-3.7947590496794517
32,-4.064087430044028,-4.212022844461062,-3.8130264571208525
33,-4.086954780873097,-4.2291778263663415,-3.847365955241408
34,-4.108285982235223,-4.245258380461569,-3.8790782361291325
35,-4.128241008477032,-4.260368249146348,-3.9084730389373554
36,-4.146957643608033,-4.27459789164517,-3.935812509602312
37,-4.16455527743557,-4.288026588067946,-3.96131990114358
39,-4.196796751606272,-4.312752318921393,-4.007577121224613
40,-4.211611903428388,-4.32416592583391,-4.0286346134238835
41,-4.225654290730107,-4.3350138460834255,-4.048483377444805
42,-4.238986849432676,-4.345339802899877,-4.0672323103447345
43.2,-4.254127492781601,-4.357096933971347,-4.08841328307447
44.5,-4.269566451897324,-4.3691191413166495,-4.109894228780763
45.8,-4.284096204177947,-4.38046392492694,-4.13000535022219
47.5,-4.301862231625211,-4.394375600545059,-4.154462391579816
48.8,-4.3145955380845855,-4.404373399043151,-4.1719036920781365
50,-4.325753857345204,-4.4131530826883925,-4.187129188039787
51.5,-4.338965737538039,-4.423570974515088,-4.205087780656378
53,-4.351429941086259,-4.433421679616117,-4.221963015520128
55,-4.366999583592448,-4.44575745099123,-4.2429533112549676
56.5,-4.377964426598819,-4.454465609872136,-4.257677199460659
58,-4.388374783810053,-4.462749503968542,-4.271612548663293
60,-4.401469023423328,-4.473191707420995,-4.289080520956543
61.5,-4.410750734164487,-4.480609126855103,-4.301422387840964
63,-4.4196091250376295,-4.487700559319116,-4.313170542739025
64.5,-4.428075236963382,-4.49448942172585,-4.324370422744568
66,-4.436177104804051,-4.500996918210481,-4.335062836631387
67.5,-4.44394011681327,-4.5072422972566395,-4.345284550583713
68.8,-4.4504118349910415,-4.512456513715764,-4.353788385947509
70,-4.45618711739543,-4.517115646765655,-4.36136354718257
71.5,-4.4631536804331065,-4.522743562154067,-4.370484167531002
73.2,-4.4707310460026495,-4.5288747460615095,-4.380383112115092
75,-4.47841119186789,-4.5350998444326915,-4.390393453830313
76.5,-4.484560042647578,-4.5400917835818975,-4.398391141358466
78,-4.490494955650995,-4.544916990301191,-4.406096286438721
80,-4.498096778607218,-4.551107690692018,-4.415944809284362
82,-4.505367231658484,-4.557039654293692,-4.425341939545217
84,-4.512330571612328,-4.5627315866234515,-4.434321544137557
86,-4.519008714596202,-4.56820041238176,-4.442914127879723
88,-4.525421513386595,-4.573461483068849,-4.451147245313966
90,-4.531586995968309,-4.578528756104761,-4.45904585278027
92,-4.537521571541975,-4.5834149499315355,-4.466632610716063
94,-4.543240209077115,-4.588131678786411,-4.473928144280928
96,-4.548756592610747,-4.592689570199109,-4.480951268920822
98,-4.55408325676907,-4.5970983677514266,-4.487719186303271
100,-4.559231705404757,-4.601367021218582,-4.494247655106454
102,-4.564212515766452,-4.605503765869347,-4.500551140380223
104,-4.569035430227775,-4.609516192420773,-4.5066429445770435
106,-4.573709437283398,-4.613411308911331,-4.512535322845481
108,-4.578242843255833,-4.6171955955641355,-4.51823958476503
110,-4.582643335937894,-4.620875053552072,-4.5237661843606105
112,-4.586918041213868,-4.624455248443276,-4.529124799953623
115,-4.593108588250351,-4.629650629241521,-4.536867206181993
118,-4.599051286217968,-4.63465016271701,-4.544279328596694
120,-4.602884521526095,-4.637881524237647,-4.549049607396419
122,-4.606620762732626,-4.641036141247571,-4.553690893087734
125,-4.6120533452648145,-4.645632067944401,-4.560424576091332
128,-4.617292521015088,-4.650074767488696,-4.566901534365906
130,-4.620684373286025,-4.652956548074036,-4.571085664575968
132,-4.623999689650013,-4.65577761337028,-4.5751683897023785
135,-4.628836456048756,-4.659901092320211,-4.581112161442535
138,-4.633519040692632,-4.6639020986637725,-4.5868520166069615
140,-4.636559881458991,-4.666505141924462,-4.590571715326588
142,-4.639539118540558,-4.6690591844187646,-4.59421008310774
145,-4.643897875231868,-4.672802616951774,-4.599522398007194
148,-4.648131419469853,-4.676446314430423,-4.604669693764774
150,-4.650887796112675,-4.678822846093427,-4.608014342363961
155,-4.657562096136527,-4.684591314774597,-4.616091054385102
160,-4.663949098210409,-4.690130271733979,-4.6237904727323755
165,-4.670073630389933,-4.695459224393222,-4.631145830953724
170,-4.675957546797584,-4.7005953461235865,-4.638186364067543
175,-4.681620158172484,-4.7055538131823065,-4.6449378914273325
180,-4.687078589854551,-4.7103480851042825,-4.651423300490613
185,-4.692348081101191,-4.714990139327527,-4.657662950655115
190,-4.697442236669078,-4.719490668542567,-4.663675012193311
195,-4.702373239322251,-4.723859247500674,-4.6694757521628
200,-4.707152030174597,-4.728104474658698,-4.675079776743361
205,-4.711788462411441,-4.732234092981548,-4.680500237569917
210,-4.7162914328673775,-4.736255093394818,-4.685749008161068
215,-4.72066899509598,-4.74017380372612,-4.690836835387293
220,-4.72492845689952,-4.743995965454529,-4.695773470008396
225,-4.729076464754353,-4.747726800172834,-4.700567779581574
230,-4.7331190771401985,-4.751371067334266,-4.705227846458346
235,-4.737061828436986,-4.754933114586478,-4.70976105311897
240,-4.740909784773356,-4.758416921777414,-4.714174156712908
245,-4.744667592983299,-4.76182613953977,-4.7184733543646695
250,-4.748339523641031,-4.765164123215112,-4.7226643405516535
255,-4.751929508990994,-4.768433962758813,-4.72675235765314
260,-4.755441176463411,-4.7716385091679925,-4.730742240598489
270,-4.7622427182149485,-4.7778620696208325,-4.738445139245725
275,-4.76553857423629,-4.780885788774855,-4.742166121702812
280,-4.768768120225928,-4.78385366000114,-4.7458049625525796
285,-4.771933844257439,-4.78676764290405,-4.74936497164327
290,-4.775038065401615,-4.789629565233564,-4.752849232141054
295,-4.778082948725925,-4.792441134711046,-4.756260620484049
300,-4.7810705187706155,-4.7952039496519685,-4.759601824309871
305,-4.784002671676691,-4.797919508523657,-4.762875358590683
310,-4.786881186118326,-4.800589218558354,-4.7660835801792825
315,-4.789707733172841,-4.803214403526568,-4.769228700943792
320,-4.7924838852447,-4.805796310762603,-4.772312799646169
330,-4.797890848420706,-4.8108349367475105,-4.778305643930901
340,-4.803112970239021,-4.815713773658549,-4.784076465633687
350,-4.808160011805968,-4.820440625760612,-4.789638080873443
360,-4.813040769788255,-4.825022557087125,-4.7950019948310345
370,-4.817763216988171,-4.829466001556913,-4.800178589563212
390,-4.826761636163645,-4.837960550504202,-4.81000665126342
400,-4.831050399098508,-4.842022125458142,-4.814674559015343
410,-4.835206585642327,-4.845966272903695,-4.819188234310005
420,-4.839235476264313,-4.849797388464721,-4.823554357951437
432,-4.843909039412667,-4.854251332831983,-4.828607636664183
445,-4.848782422156123,-4.858907257117207,-4.833863783310083
458,-4.853467719674013,-4.863395032365449,-4.838904256919593
475,-4.859325351528699,-4.869022440476789,-4.845187951274115
488,-4.8636091334259905,-4.87315029645771,-4.849770353341638
500,-4.867420247894617,-4.876832077383104,-4.853837642017371
515,-4.871999738535971,-4.881268612777948,-4.858712695048826
530,-4.876384119821219,-4.885529805685884,-4.863366940881981
550,-4.881943589567647,-4.890954124932405,-4.869249016610006
565,-4.885910575943565,-4.894840506652602,-4.873431859156737
580,-4.889713792381311,-4.898580120884805,-4.877429923431328
600,-4.8945446059669395,-4.903351529369404,-4.882489697747131
615,-4.897998068129569,-4.906778805634663,-4.886092970712929
630,-4.901314685146471,-4.910084477756208,-4.889541539031403
645,-4.904501834543223,-4.9132755339035,-4.892843511290817
660,-4.907566604678912,-4.916358724394959,-4.8960066281065195
675,-4.910515809311757,-4.919340570541678,-4.899038285468208
688,-4.912983377646611,-4.921847735918804,-4.901564859670087
700,-4.91519201918449,-4.92410211806894,-4.903817983165041
715,-4.917864403064219,-4.926843932177532,-4.906532828624143
732,-4.9207812970350755,-4.929855783848498,-4.909480644094717
750,-4.923749081952998,-4.93294274714111,-4.912461773557216
765,-4.926134027716287,-4.935441518913113,-4.914842963761322
780,-4.928444319711818,-4.937878739010003,-4.91713625550415
800,-4.931417155723856,-4.941041086253519,-4.920066215568132
820,-4.934277361985141,-4.944113882336886,-4.922860878070159
840,-4.937035610570975,-4.947107744805689,-4.925531312174346
860,-4.939702010110247,-4.950032770508149,-4.928087957274056
880,-4.94228613124171,-4.952898556027385,-4.930540656043886
900,-4.9447970314013645,-4.955714218094193,-4.932898685814933
920,-4.947243278986138,-4.958488413924547,-4.935170788472835
940,-4.9496329769058045,-4.961229361409869,-4.937365199018553
960,-4.95197378551428,-4.9639448590811615,-4.939489672889749
980,-4.954272944899671,-4.966642305767674,-4.941551512111426
1000,-4.956537296507073,-4.969328719874579,-4.943557590324842
1020,-4.958773304067059,-4.97201075821081,-4.945514376730955
1040,-4.960987073804759,-4.974694734306376,-4.947427958976852
1060,-4.963184373908154,-4.977386636167471,-4.949304065009338
1080,-4.965370653239032,-4.980092143426827,-4.951148083917952
1100,-4.967551059275291,-4.9828166438556885,-4.952965085789322
1120,-4.969730455278685,-4.98556524921217,-4.954759840595482
1150,-4.973007638619742,-4.989743897608298,-4.957420003681271
1180,-4.9763072913171715,-4.994002985898163,-4.960054191099305
1200,-4.978526153083849,-4.996894124588335,-4.96180226411758
1220,-4.9807646048261605,-4.999831293392141,-4.963548034802086
1250,-4.984166565508952,-5.004331505358378,-4.966169572520789
1280,-4.987631340744947,-5.008955568547072,-4.968803731390121
1300,-4.989981111462735,-5.012112565085605,-4.970571575267295
1320,-4.992366107169702,-5.0153325987827415,-4.9723518820823305
1350,-4.99601541995239,-5.02028720637742,-4.975051065588182
1380,-4.999758334940216,-5.025399496919282,-4.977791550710352
1400,-5.002309478468799,-5.028899589940623,-4.979645020596909
1420,-5.004907855235539,-5.0324760362057726,-4.981521979125487
1450,-5.008898457463247,-5.03798887514597,-4.98438548851876
1480,-5.013006477534386,-5.043685990826434,-4.987311845156698
1500,-5.01581340953263,-5.047589833444086,-4.989300344383691
1550,-5.023081858014947,-5.057733347534366,-4.994413931167857
1600,-5.030728288665902,-5.068446808592681,-4.999747601829718
1650,-5.0387745568173985,-5.07975442297966,-5.005320176040797
1700,-5.047240221063021,-5.0916774388659745,-5.01114832376982
1750,-5.056142813176073,-5.104234302250427,-5.017246886314913
1800,-5.065498052706547,-5.117440750993209,-5.023629143934465
1850,-5.075320013560927,-5.131309854789548,-5.0303070379245085
