Frequency,Nominal,Min,Max
1.08,0.02407952694796982,0.030319708170098294,0.01831967965480979
1.1,0.024079531040417042,0.03031976427473803,0.018319673862030525
1.12,0.024079536751228862,0.030319826280855167,0.0183196683559702
1.15,0.024079548535110743,0.030319930931407762,0.01831966068127896
1.18,0.024079564436922756,0.030320050358476437,0.018319653773463646
1.2,0.024079577471517906,0.03032013864324197,0.01831964963152177
1.22,0.024079592556884608,0.030320234188141715,0.018319645886800563
1.25,0.024079619229190025,0.03032039174301254,0.018319641065419168
1.28,0.024079651032989733,0.030320567256260252,0.018319637270104057
1.3,0.02407967524400178,0.030320694736309363,0.018319635350279626
1.32,0.02407970197423813,0.03032083094574888,0.018319633947552327
1.35,0.024079747007867722,0.030321052300204425,0.01831963286801635
1.38,0.02407979826725065,0.030321295041822256,0.01831963309476735
1.4,0.02407983606845015,0.03032146928188171,0.018319634015102094
1.42,0.024079876893004223,0.030321653829455803,0.0183196355817284
1.45,0.024079944028858487,0.03032195069723536,0.01831963920252274
1.48,0.02408001856456676,0.03032227262389681,0.018319644430723148
1.5,0.0240800725473407,0.030322501729438123,0.018319648855729082
1.55,0.024080223336966553,0.0303231277274817,0.018319663414587448
1.6,0.024080398165303593,0.030323834204691865,0.018319683333328673
1.65,0.024080598854085776,0.03032462683721947,0.018319709080495936
1.7,0.024080827278875318,0.030325511462509936,0.01831974113889105
1.75,0.024081085368717826,0.030326494077753167,0.01831978000551956
1.8,0.02408137510579132,0.030327580838315313,0.01831982619153451
1.85,0.024081698525049204,0.03032877805615495,0.018319880222178953
1.9,0.024082057713857897,0.03033009219822491,0.018319942636727246
1.95,0.024082454811628757,0.030331529884861784,0.01832001398842528
2,0.024082892009445522,0.030333097888164632,0.018320094844429365
2.05,0.024083371549686816,0.030334803130364626,0.01832018578574419
2.1,0.02408389572564438,0.030336652682186938,0.018320287407159564
2.15,0.02408446688113747,0.030338653761206147,0.01832040031718624
2.2,0.024085087410123305,0.030340813730196894,0.018320525137990713
2.25,0.024085759756304215,0.03034314009548025,0.018320662505328933
2.3,0.024086486412731808,0.030345640505267342,0.018320813068479252
2.35,0.024087269921408073,0.030348322748000867,0.01832097749017436
2.4,0.024088112872884045,0.03035119475069513,0.018321156446532486
2.45,0.024089017905856252,0.030354264577275396,0.018321350626987608
2.5,0.024089987706760966,0.030357540426916695,0.018321560734219013
2.55,0.024091025009366825,0.030361030632382394,0.01832178748408007
2.6,0.02409213259436577,0.03036474365836256,0.018322031605526302
2.7,0.02409456996646417,0.03037287268028738,0.01832257494407051
2.75,0.024095905545865586,0.030377306250282888,0.018322875683933357
2.8,0.0240973229914384,0.030381997785564004,0.01832319684076273
2.85,0.024098825312316163,0.03038695638549752,0.018323539207923085
2.9,0.024100415562080243,0.03039219127137728,0.018323903591436274
2.95,0.024102096838345258,0.030397711784743535,0.018324290809905632
3,0.02410387228234425,0.030403527385694372,0.018324701694439456
3.05,0.024105745078513596,0.03040964765118689,0.018325137088574337
3.1,0.024107718454078032,0.030416082273325772,0.018325597848197792
3.15,0.024109795678635346,0.03042284105763669,0.018326084841470854
3.2,0.024111980063741368,0.03042993392132117,0.018326598948750057
3.3,0.02411668376912074,0.030445162103369984,0.018327712087261708
3.4,0.024121856886039763,0.03046184832279492,0.018328944547519665
3.5,0.024127527375059722,0.03048007575363968,0.01833030380341154
3.6,0.024133723828157563,0.030499929179257562,0.018331797516392717
3.7,0.024140475455361327,0.030521494927706654,0.018333433532943956
3.9,0.024155764081735503,0.03057011601232719,0.018337164772506017
4,0.02416436246971909,0.030597351085094236,0.018339276590639324
4.1,0.024173638781837214,0.030626657787784475,0.01834156389747176
4.2,0.024183625113961254,0.03065812902813967,0.01834403542629934
4.32,0.024196591919634445,0.0306988840458027,0.01834725698111953
4.45,0.02421191269583216,0.03074689572170055,0.018351079056073184
4.58,0.02422863024850051,0.03079912751461027,0.018355266369168528
4.75,0.024252725307535698,0.030874151528575353,0.01836132796680924
4.88,0.02427295721343896,0.030936933677839486,0.01836643854428082
5,0.024293097270588208,0.030999252538527197,0.01837154245660199
5.15,0.02432034732872416,0.031083306297688944,0.01837847149570272
5.3,0.024350018816106832,0.031174500381827574,0.018386043337276392
5.5,0.024393565023401866,0.03130774619631082,0.018397200763758243
5.65,0.024429378007989437,0.03141681742899644,0.01840641233292716
5.8,0.024468036791556545,0.031534044183444056,0.018416388230889046
6,0.024524232622042532,0.031703500191450934,0.01843094398193928
6.15,0.02457003615534294,0.03184077450991867,0.018442851781905405
6.3,0.024619118436698086,0.0319870122084892,0.01845565263318184
6.45,0.024671608926867903,0.032142385293093795,0.018469386419620926
6.6,0.024727635993753595,0.032307020805333944,0.01848409356003744
6.75,0.024787326290796018,0.032480992547591514,0.01849981497668568
6.88,0.0248421171280603,0.0326393307500574,0.01851429262287767
7,0.024895286610854002,0.03279169174118442,0.018528383902715436
7.15,0.02496534368862035,0.0329904166335915,0.018547013568045966
7.32,0.025049704523270048,0.03322650228429963,0.018569541515659864
7.5,0.025144941262083012,0.03348856701933845,0.01859509911898503
7.65,0.025229072273040956,0.03371592291423683,0.018617788990945267
7.8,0.02531763205874234,0.03395082818644795,0.01864179034658364
8,0.025442734084188595,0.034274546803798926,0.018675907228034798
8.2,0.0255759965562637,0.03460838748444981,0.018712535652481904
8.4,0.025717521879960566,0.03494988204509854,0.018751778252065733
8.6,0.02586735607775244,0.035296143453491025,0.0187937369877753
8.8,0.02602547899918682,0.0356439036884046,0.01883851267377785
9,0.026191793880259197,0.03598957871650184,0.018886204433372456
9.2,0.02636611647507,0.03632936026386364,0.018936909078573184
9.4,0.026548164079153336,0.03665933085642259,0.018990720405040767
9.6,0.026737544872058237,0.036975595295367494,0.01904772839394485
9.8,0.0269337481200039,0.03727441896262568,0.01910801831240298
10,0.027136135887892446,0.03755236175220902,0.019171669704472913
10.2,0.027343937000057533,0.03780639643107132,0.01923875526534454
10.4,0.027556244043952238,0.03803400193208362,0.01930933959247257
10.6,0.02777201421170987,0.038233225158130095,0.01938347780900417
10.8,0.027990074702889518,0.03840270870551119,0.019461214057090392
11,0.02820913325360445,0.03854168574731157,0.019542579861629297
11.2,0.02842779410682512,0.0386499464891693,0.019627592368775856
11.5,0.028751790839019603,0.03875550287674767,0.01976194571275415
11.8,0.029066363848639025,0.038795428966826716,0.019904425766143798
12,0.029268253760256654,0.03878766972755493,0.020003841278622744
12.2,0.029462117826242824,0.038754194111450806,0.020106704778359612
12.5,0.029734766049610336,0.038659475336981365,0.020267214001688644
12.8,0.029981827783842008,0.038516665872940684,0.02043472637298968
13,0.030130514609554838,0.03839770757508486,0.020549974777909537
13.2,0.030265370383683467,0.03826177182341532,0.02066781188089141
13.5,0.030440326158736083,0.038029649631209236,0.020848821353127947
13.8,0.030581279852608466,0.037768301293899104,0.021033982797020907
14,0.030656064179593708,0.03758020951121439,0.021159130237130952
14.2,0.030715537819349388,0.03738254907459002,0.021285175300740037
14.5,0.030776510029232883,0.037070693771899976,0.02147496824532206
14.8,0.030804696443412095,0.03674357539330008,0.02166422315397278
15,0.030806088658733587,0.036518591763353196,0.02178926961357224
15.5,0.030753066924048812,0.03593787402150153,0.02209420050806087
16,0.030627782557667328,0.03533949304829252,0.022381690196787783
16.5,0.030441226138341833,0.03473191811861317,0.022644058398578432
17,0.030204071033668237,0.03412162597093085,0.022874631287253554
17.5,0.029926105863393445,0.03351351913301944,0.023068233000839156
18,0.029615968892846928,0.03291126837331959,0.02322147058511026
18.5,0.02928108160123007,0.03231758647632824,0.023332785340765716
19,0.028927699151799123,0.03173444406368902,0.023402299315368653
19.5,0.028561020277221984,0.031163238344637075,0.023431522269127758
20,0.02818532015699998,0.030604924471158163,0.02342299459559844
20.5,0.027804085155359797,0.03006011756529214,0.023379930535977353
21,0.02742013836743621,0.029529171912908433,0.02330590446955026
21.5,0.027035751100901468,0.029012242446694616,0.02320460096775968
22,0.026652738963395924,0.028509332511637456,0.023079632304173932
22.5,0.026272543104228514,0.028020331005287325,0.022934416741500898
23,0.02589629804018618,0.027545041279547208,0.02277210620966709
23.5,0.025524887809996854,0.02708320364416129,0.022595551111772548
24,0.025158992213780308,0.02663451289121491,0.02240729121868771
24.5,0.024799124758040168,0.026198631936832653,0.022209563692132787
25,0.024445663731259053,0.025775202428391573,0.022004321465858463
25.5,0.02409887762724165,0.025363852975321184,0.021793257149176817
26,0.02375894593664763,0.024964205515328367,0.021577829168125156
27,0.023100017680560164,0.024198499218680457,0.021138701397594748
27.5,0.022781073233828934,0.023831689485374286,0.020916977357041063
28,0.022469108155470444,0.023475084914646737,0.020694885399723903
28.5,0.022164058065786023,0.023128327904779852,0.020473075187386065
29,0.021865835128537518,0.022791070468131166,0.020252093071659195
29.5,0.021574333189754522,0.022462974996887135,0.02003239654409803
30,0.02128943199150344,0.022143714754702608,0.01981436679829271
30.5,0.021011000626059602,0.021832974153994045,0.019598319603950896
31,0.020738900365484023,0.02153044886641497,0.019384514690748724
31.5,0.020472986976935628,0.021235845804342617,0.01917316382854565
32,0.02021311261403576,0.02094888300349886,0.01896443777471752
33,0.0197108804717881,0.02039680473578305,0.018555373020004297
34,0.01923100063846701,0.01987217223390449,0.01815807282118064
35,0.018772284650679733,0.019373104749811566,0.0177729372596652
36,0.01833357799369269,0.018897871782931192,0.01740011155517016
37,0.017913771842792175,0.018444881827040217,0.017039557930683753
39,0.017126690978721732,0.017599893586855743,0.016354505350381666
40,0.016757471320382352,0.01720530954615022,0.016029427815937948
41,0.016403262638223746,0.01682777760917039,0.015715515647456397
42,0.016063231209255957,0.016466245453463754,0.015412383973677005
43.2,0.015672810625447293,0.01605216468916855,0.015062295912126534
44.5,0.01527017091412998,0.015626222658381168,0.014699100721242952
45.8,0.014887228986378736,0.015222106696241217,0.014351763460345763
47.5,0.014413950287652303,0.01472392839219289,0.013920067905459054
48.8,0.014071500150172087,0.014364299132790378,0.013606128989704178
50,0.013769302179906455,0.014047502554621871,0.013328046152817723
51.5,0.013409084369622336,0.013670547314794347,0.012995349639355152
53,0.013067011030980246,0.013313225945692042,0.012678231763607412
55,0.012636901276527031,0.012864804983870524,0.012277945323533695
56.5,0.012332295206613757,0.012547791515823092,0.011993457918297725
58,0.012041923085917198,0.012246011092025819,0.011721521587812627
60,0.011675259199061332,0.011865509527228776,0.011377139437156592
61.5,0.011414516781926577,0.011595302286205703,0.011131587566683468
63,0.011165121250536274,0.011337138525903186,0.010896228766274108
64.5,0.010926357555744776,0.011090235785145789,0.010670464008374994
66,0.01069756840394936,0.01085387739961493,0.010453737561573619
67.5,0.010478148687336396,0.01062740579735206,0.010245533560981377
68.8,0.010295131429265941,0.010438659297166933,0.010071612540692308
70,0.010131774386798669,0.010270304052864256,0.009916179530784412
71.5,0.009934726853422577,0.010067370549005125,0.009728449775768198
73.2,0.009720477393520784,0.009846896208739638,0.009524038591931376
75,0.00950348371178455,0.009623780768756645,0.009316704270605245
76.5,0.009329933312153765,0.009445464698666124,0.009150662637892854
78,0.00916262139898817,0.009273666730112491,0.008990410304173925
80,0.00894867921026337,0.009054141068964693,0.008785243060232541
82,0.008744530065398734,0.008844821790812476,0.008589207860371912
84,0.008549520420675947,0.00864501530967439,0.008401716583433074
86,0.008363053195387648,0.008454089263546417,0.008222229595172968
88,0.008184581857157756,0.008271465932622705,0.008050250983199898
90,0.008013605227325657,0.008096616484693996,0.007885324321593288
92,0.007849662907576202,0.007929055929596694,0.007727028901857815
94,0.007692331243919988,0.007768338683355036,0.007574976374470852
96,0.007541219756623409,0.00761405465816438,0.007428807752110933
98,0.007395967975171784,0.007465825807217585,0.007288190731719428
100,0.00725624262616459,0.007323303064069674,0.007152817297893518
102,0.007121735129471825,0.0071861636251612316,0.007022401574797834
104,0.006992159364257259,0.007054108531595174,0.006896677897881259
106,0.006867249671789659,0.006926860512540465,0.006775399080260755
108,0.006746759066474622,0.006804162057927406,0.006658334851748399
110,0.006630457630378627,0.0066857736925712615,0.006545270451208667
112,0.006518131069790903,0.006571472427651842,0.00643600535529206
115,0.006356660312851132,0.00640723289071558,0.006278824713177229
118,0.006203065641819735,0.00625108036354296,0.006129190829970197
120,0.006104765200683763,0.006151181417141631,0.006033364428228216
122,0.006009561191300447,0.0060544577290793985,0.005940511597930003
125,0.005872248701619257,0.0059150024591966026,0.005806512911061576
128,0.005741132253287424,0.005781893632755639,0.005678476201627307
130,0.005656959680584211,0.005696469497059885,0.005596237529336668
132,0.0055752455110847695,0.005613560765942934,0.005516368671961518
135,0.005457053353660224,0.005493676245645067,0.0054007899655701954
138,0.005343822168381517,0.005378862848543507,0.005290001244014683
140,0.005270938743398363,0.00530498114500732,0.005218658429371911
142,0.005200039326647498,0.005233125695696195,0.0051492341149945355
145,0.005097236565911046,0.005128962997107719,0.005048529141411951
148,0.004998466834793075,0.00502891585841539,0.004951729345054782
150,0.00493474521678069,0.004964385225380394,0.004889255069503825
155,0.004782413099081146,0.00481016686523702,0.004739830381081729
160,0.00463931595818234,0.004665358853071232,0.004599369434728557
165,0.004504638199270733,0.0045291245190825355,0.004467089401064899
170,0.004377657395651106,0.00440072344006075,0.004342295804839852
175,0.004257731370581781,0.004279497996302178,0.004224370433002889
180,0.004144287367975234,0.004164862119043279,0.0041127611704772195
185,0.004036812928729861,0.004056291823262272,0.004006973415420239
190,0.003934848167655435,0.003953317204076964,0.003906562795603793
195,0.0038379792066727406,0.0038555156395389404,0.0038111289620741317
200,0.0037458325674366876,0.003762505992984204,0.003720310279088302
205,0.0036580703638836192,0.00367394364763905,0.0036337792631806966
210,0.0035743861647752426,0.0035895162374188173,0.0035512386511275225
215,0.0034945014198612813,0.003508939962687087,0.003472417998090377
220,0.0034181623621414546,0.003431956399591348,0.003397070724507355
225,0.003345137313889781,0.0033583297275438834,0.003324971544261788
230,0.0032752143363887496,0.003287844312304622,0.0032559142179890404
235,0.003208199173309269,0.0032203025925862964,0.003189709584619467
240,0.0031439134458308886,0.003155523226637484,0.003126183831820528
245,0.0030821930642906813,0.0030933394622528645,0.0030651769722225856
250,0.0030228868266643427,0.0030335976994153705,0.0030065414974504876
255,0.0029658551787457247,0.0029761562195307445,0.002950141186242226
260,0.0029109691146803466,0.0029208840591604932,0.0028958500464803
270,0.002807164699286271,0.0028163717251534406,0.002793136912891561
275,0.0027580328021265775,0.002766914929604775,0.0027445061062979096
280,0.002710617924260723,0.002719192703633702,0.0026975654240724654
285,0.002664831085688007,0.0026731148484228774,0.0026522277606474587
290,0.0026205893502090623,0.002628597313400025,0.0026084118933302346
295,0.0025778153213316273,0.0025855616815803214,0.00256604199451987
300,0.002536436687777586,0.0025439347057363026,0.0025250471916270626
305,0.002496385812990751,0.002503647889634679,0.0024853611693452155
310,0.0024575993637558926,0.0024646371093136167,0.002446921809595647
315,0.0024200179736505855,0.002426842270004581,0.002409670865050613
320,0.002383585937577955,0.002390206994845821,0.0023735536626387807
330,0.0023139637725500695,0.0023202065472198545,0.0023045180691985
340,0.002248350504242164,0.00225424897527495,0.0022394394636329564
350,0.0021864069515877306,0.0021919912956308305,0.0021779845034062507
360,0.0021278311939295054,0.002133128306917535,0.002119856304480161
370,0.0020723535962972406,0.0020773875314649562,0.0020647895952780205
390,0.0019697512141583808,0.0019743213746059767,0.0019629136791114556
400,0.0019222138783565033,0.0019265793895674717,0.0019156981386152078
410,0.0018769439731108834,0.0018811206985103214,0.0018707259248310743
420,0.0018337815400788755,0.001837783874686489,0.001827839331762916
432,0.0017845649710880567,0.0017883752190523876,0.0017789277167277297
445,0.0017341745853106524,0.0017377957483040143,0.0017288389108914386
458,0.0016865794295263508,0.0016900291694531213,0.0016815186280287509
475,0.0016281803153422197,0.0016314294514257783,0.0016234433950622499
488,0.001586203759941877,0.0015893154879323354,0.001581690419251741
500,0.001549347985116014,0.0015523438634892754,0.0015450245073851485
515,0.0015056365847192648,0.0015085010257920954,0.0015015303737482822
530,0.0014643408246874873,0.0014670872041465952,0.0014604318654925978
550,0.0014127008257736038,0.0014153082280339774,0.001409027363888787
565,0.001376312955161748,0.0013788284288145116,0.001372797823374018
580,0.001341762276486385,0.0013441952420181224,0.0013383915205145182
600,0.0012983182803723526,0.001300654389360576,0.0012951206166528497
615,0.001267545697231504,0.0012698180513419561,0.0012644647946268718
630,0.001238203904428504,0.0012404193898947428,0.00123522969109524
645,0.0012101948997997253,0.001212359826346067,0.0012073181869721539
660,0.001183429520738422,0.0011855496863642772,0.0011806419034452054
675,0.0011578264654560964,0.0011599072126729077,0.0011551202363388284
688,0.0011365197527336834,0.0011385703434842022,0.0011338783085785272
700,0.0011175387229986366,0.0011195645605427765,0.0011149526743480646
715,0.0010946887121725086,0.0010966875044033076,0.001092166367997471
732,0.0010698998187121318,0.0010718728370623755,0.0010674427766689295
750,0.0010448520065826684,0.0010468029629290949,0.0010424567653488134
765,0.0010248608899924639,0.001026797273301953,0.0010225118329451443
780,0.001005623429788858,0.0010075484739766884,0.0010033160781023824
800,0.0009810742709770333,0.0009829888911217445,0.0009788160731838786
820,0.0009577007716419179,0.0009596099555892401,0.0009554849303641148
840,0.0009354209781465289,0.000937329347135743,0.0009332412567695912
860,0.000914160456174439,0.0009160723068526065,0.0009120111144090781
880,0.0008938514408654976,0.0008957707816187149,0.0008917271790056146
900,0.000874432100148508,0.0008763626826227532,0.0008723280106877343
920,0.0008558458940530439,0.0008577912405869387,0.0008537574195523677
940,0.0008380410157076722,0.0008400044432776893,0.0008359639119933004
960,0.000820969902110503,0.0008229545432899675,0.0008189002060330967
980,0.0008045888047012488,0.0008065976260533203,0.0008025228058120035
1000,0.0007888574113584401,0.0007908932296165597,0.0007867916269596575
1020,0.0007737385127592183,0.0007758040090934636,0.0007716696658713386
1040,0.0007591977071259855,0.0007612954397481564,0.000757122706982897
1060,0.0007452031382867325,0.0007473355536090511,0.0007431190630292901
1080,0.0007317252627281716,0.0007338947052587887,0.0007296293440143595
1100,0.0007187366419500393,0.000720945363082001,0.0007166262512408582
1120,0.0007062117569570877,0.0007084619227850839,0.0007040843932714129
1150,0.0006882423893218139,0.0006905586139712876,0.0006860851291900143
