Frequency,Nominal,Min,Max
0.041,323485703.48735154,308081627.9247765,340511261.141304
0.042,315783665.18370944,300746353.48538834,332403852.26190895
0.0432,307011899.40764576,292392291.0041289,323170414.43643165
0.0445,298043015.3828948,283850496.87100387,313729483.7037273
0.0458,289583282.0638688,275793608.17190284,304824501.08231246
0.0475,279219252.6222984,265923104.17220098,293914996.1711526
0.0488,271781037.75508803,258839090.18911463,286085296.1305963
0.05,265258295.55540162,252626954.9234526,279219251.5434108
0.0515,257532329.15621147,245268891.88939208,271086655.1256582
0.053,250243681.70671508,238327323.09313512,263414394.44442546
0.055,241143915.94533727,229660879.78188848,253835693.36553693
0.0565,234741868.4582128,223563691.90217617,247096695.80259037
0.058,228670961.4469084,217781875.90419734,240706267.16155982
0.06,221048600.5547649,210522484.84936416,232682729.10291785
0.0615,215657174.65531743,205387793.71982047,227007543.73752606
0.063,210522483.4040373,200497611.77900752,221602605.37020522
0.0645,205626615.0812849,195834880.2463162,216449059.55922934
0.066,200953286.30556968,191384091.13937455,211529765.90302944
0.0675,196487661.10708913,187131114.9631326,206829107.59128714
0.0688,192774961.14780903,183595210.4161702,202921002.19065747
0.07,189470250.24395934,180447866.8608288,199442358.9675107
0.0715,185495353.27740696,176662250.90547076,195258256.689377
0.0732,181187404.91942784,172559443.17585576,190723573.9714714
0.075,176838911.26101404,168418020.887949,186146211.97607842
0.0765,173371485.01900846,165115710.38454026,182496289.40799397
0.078,170037421.39062095,161940411.8941011,178986748.53845492
0.08,165786490.36429733,157891906.42576292,174512084.0227815
0.082,161742921.93841645,154040889.14832258,170255695.9286268
0.084,157891904.49866098,150373253.76243022,166201993.0830252
0.086,154220004.2553013,146876206.182629,162336834.6546823
0.088,150715008.67221937,143538115.42213997,158647365.34242132
0.09,147365790.77206334,140348384.3596756,155121872.53850344
0.092,144162191.14072946,137297337.36275604,151749662.12281933
0.094,141094914.99510133,134376122.2569848,148520950.1131414
0.096,138155442.11732236,131576624.54916513,145426767.8590941
0.098,135335947.81752422,128891392.1537081,142458878.8450267
0.1,132629233.38102803,126313569.15187195,139609705.4765403
0.102,130028664.6982278,123836837.34403196,136872264.48036548
0.104,127528117.97564106,121455364.54591905,134240109.75809962
0.106,125121931.59287836,119163758.73811468,131707281.70933276
0.108,122804863.30883834,116957027.31004624,129268262.18553717
0.11,120572052.13631794,114830540.75009166,126917934.3580781
0.112,118418984.30148578,112780000.22603059,124651546.88608031
0.115,115329800.1656015,109837920.50314271,121399773.69530895
0.118,112397693.36327696,107045438.24078785,118313345.06617948
0.12,110524403.0013508,105261352.45282757,116341460.1972408
0.122,108712532.07039756,103535761.361032,114434227.36090519
0.125,106103438.06678975,101050910.33555003,111687812.20410928
0.128,103616645.50510673,98682536.87380585,109070135.40723431
0.13,102022547.79695404,97164348.85134397,107392137.54226784
0.132,100476756.14913166,95692166.60062519,105764988.16185965
0.135,98243946.11798519,93565681.26320134,103414661.39712858
0.138,96108214.93271984,91531651.96947372,101166522.89121981
0.14,94735244.96657589,90224061.79654376,99721291.07047325
0.142,93400950.27504852,88953305.21848673,98316770.06511265
0.145,91468523.59849566,87112899.26638983,96282636.30521725
0.148,89614438.68278077,85347104.51509087,94330967.55673029
0.15,88419584.03541152,84209147.97908898,93073225.54522046
0.155,85567350.61877526,81492735.87888113,90070873.88674803
0.16,82893382.14735729,78946099.91697606,87256169.53903194
0.165,80381472.71704668,76553805.89898252,84612053.65563971
0.17,78017323.0006868,74302235.41808459,82123474.31324847
0.175,75788267.87993884,72179326.45681675,79777099.8083438
0.18,73683049.47183503,70174357.22187634,77561079.73780166
0.185,71691626.96183649,68277765.03275011,75464844.82316008
0.19,69805016.46325055,66480993.806873694,73478938.34158477
0.195,68015155.51366073,64776365.008612245,71594873.49053198
0.2,66314787.8968922,63156967.95589449,69805012.14771244
0.205,64697365.32029932,61616566.17953417,68102461.37349921
0.21,63156963.13815513,60149517.15979125,66480984.69870599
0.215,61688207.834567726,58750703.26248297,64934925.790814996
0.22,60286214.39508989,57415472.092897706,63459142.529355496
0.225,58946532.02878086,56139584.8025204,62048949.87123196
0.23,57665096.96999906,54919171.13835909,60700070.16840061
0.235,56438191.305497915,53750690.230655126,59408589.82797034
0.24,55262406.948134735,52630896.282129735,58170921.389790975
0.245,54134614.02196216,51556808.45854734,56983770.247602105
0.25,53051933.04110861,50525684.39241118,55844105.363644205
0.255,52011710.361731656,49534996.803871304,54749133.42860945
0.26,51011496.466438256,48582412.81922006,53696276.003136784
0.27,49122204.187194146,46783088.19405199,51707545.90097454
0.275,48229084.51192159,45932498.70465722,50767419.23341988
0.28,47367862.17172235,45112287.62961746,49860868.70804812
0.285,46536858.35948716,44320856.105019145,48986127.1594811
0.29,45734510.04790737,43556715.53342545,48141549.29581499
0.295,44959360.1776275,42818478.2392597,47325601.37035979
0.3,44210048.8265824,42104849.058650315,46536851.886204876
0.305,43485305.24792432,41414617.756504215,45773963.21508941
0.31,42783940.67847309,40746652.1774117,45035684.0273501
0.315,42104841.83207588,40099892.04884623,44320842.44282607
0.32,41446965.00296437,39473343.36531417,43628339.82386646
0.33,40191018.84800048,38277205.52516175,42306289.85253745
0.34,39008952.550002836,37151429.453546144,41062008.15170144
0.35,37894433.549801774,36089984.14173428,39888828.869600974
0.36,36841832.90591311,35087508.69307448,38780826.80467381
0.37,35846130.21106713,34139221.76730979,37732717.31768874
0.39,34007911.607254915,32388540.092800435,35797747.59202064
0.4,33157736.35899245,31578850.735202048,34902824.890920654
0.41,32349033.630806766,30808659.015769064,34051557.47411472
0.42,31578841.099834103,30075143.67463114,33240827.107009463
0.432,30701678.08148122,29239751.949846573,32317495.94944933
0.445,29804804.368176695,28385588.270128943,31373416.553231765
0.458,28958845.725422524,27579915.133787025,30482931.968124904
0.475,27922461.990117364,26592885.30844136,29391999.362333458
0.488,27178655.192491148,25884499.64363635,28609043.035268303
0.5,26526394.531665396,25263300.640278295,27922451.20144628
0.515,25753814.840645112,24527512.490846418,27109207.34076708
0.53,25024967.04456006,23833373.765153773,26341997.05371173
0.55,24115013.06685358,22966753.63920714,25384147.987201635
0.565,23474825.266922195,22357053.00506835,24710264.011906125
0.58,22867751.514535375,21778889.55905779,24071236.92877136
0.6,22105538.023585856,21052974.658551976,23268904.164148826
0.615,21566412.382293466,20539523.699275,22701401.408502784
0.63,21052960.20577704,20050523.65882199,22160923.35263026
0.645,20563390.32207163,19584268.65913083,21645584.552357834
0.66,20096074.39302717,19139207.901963137,21153670.967527796
0.675,19649528.82166245,18713928.43781272,20683620.917107485
0.688,19278273.514383826,18360353.71608353,20292824.05366814
0.7,18947815.982721746,18045633.883251593,19944972.355904084
0.715,18550343.234428305,17667090.441043176,19526577.908744544
0.732,18119567.606716424,17256830.241783626,19073127.52164776
0.75,17684738.578780517,16842709.796830803,18615410.258787073
0.765,17338012.90277991,16512496.899622349,18250433.782499168
0.78,17004623.488090403,16194985.20364978,17899495.476024035
0.8,16579552.982909778,15790158.860813996,17452050.06502868
0.82,16175218.737679154,15405081.336954445,17026432.29610756
0.84,15790139.590964448,15038342.002133293,16621083.051962161
0.86,15422972.16379033,14688661.447802024,16234588.249461107
0.88,15072495.202542657,14354876.575279903,15865662.358484784
0.9,14737596.009483892,14035927.672435343,15513134.118257375
0.92,14417258.643201284,13730847.176017523,15175934.116766002
0.94,14110553.625380853,13438749.868583955,14853083.95578596
0.96,13816628.934234578,13158824.300812121,14543686.770277768
0.98,13534702.100773271,12890325.264140299,14246918.908674393
1,13264053.25352669,12632567.166691473,13962022.611534018
1.02,13004018.981531883,12384918.188500328,13688299.55152776
1.04,12753986.905438244,12146795.111137128,13425105.118813418
1.06,12513390.863204475,11917658.732657183,13171843.353348056
1.08,12281706.630718088,11697009.792000387,12927962.44027696
1.1,12058448.10925642,11484385.338001708,12692950.696734712
1.12,11843163.921433974,11279355.487436263,12466332.988631852
1.15,11534279.401088558,10985183.817609563,12141187.227995718
1.18,11241102.613794269,10705971.893468956,11832575.92327269
1.2,11053796.172720483,10527587.515860787,11635408.475029385
1.22,10872631.674602618,10355052.607698796,11444706.22992995
1.25,10611756.166437808,10106603.806351453,11170096.271828987
1.28,10363110.802134153,9869802.760978788,10908360.149447221
1.3,10203723.625707319,9718008.159040652,10740581.400999565
1.32,10049167.055160373,9570814.134092359,10577887.500881596
1.35,9825919.943106387,9358201.900183277,10342886.38105203
1.38,9612380.715282701,9154835.270212822,10118104.086809993
1.4,9475106.312267499,9024100.452277195,9973601.942134272
1.42,9341699.436549053,8897048.993630223,9833170.87886132
1.45,9148490.658730848,8713044.696779983,9629789.058507532
1.48,8963116.056612162,8536501.519546658,9434653.738978077
1.5,8843653.184626361,8422730.06428231,9308900.574527519
1.55,8558486.324062463,8151149.3491638815,9008717.999790464
1.6,8291145.95687943,7896546.246501422,8727300.155189283
1.65,8040011.492629424,7657377.336811536,8462941.156050451
1.7,7803652.99856003,7432280.77936838,8214135.810011413
1.75,7580803.9628006285,7220050.372381156,7979550.946690452
1.8,7370338.597017703,7019613.936475357,7758001.525744904
1.85,7171252.819720637,6830015.203555432,7548430.619298316
1.9,6982648.242203441,6650398.565320711,7349892.555036989
1.95,6803718.618187744,6479996.168163501,7161538.652676309
2,6633738.326019349,6318116.943832462,6982605.099957093
2.05,6472052.53639699,6164137.2453647675,6812402.602886408
2.1,6318068.784711262,6017492.820742225,6650307.514515384
2.15,6171249.719336288,5877671.906502374,6495754.201562008
2.2,6031106.838790657,5744209.2631298825,6348228.45194898
2.25,5897195.0639436105,5616681.005729078,6207261.76133652
2.3,5769108.018194317,5494700.108956608,6072426.364890033
2.35,5646473.910181451,5377912.485792461,5943330.903290192
2.4,5528951.931154086,5265993.556464627,5819616.630491772
2.45,5416229.093480834,5158645.237505422,5700954.085838528
2.5,5308017.448537892,5055593.2921210565,5587040.165524314
2.55,5204051.63190438,4956584.992282429,5477595.538588153
2.6,5104086.691804365,4861387.050574679,5372362.361063748
2.7,4915270.356967554,4681575.494622347,5173594.476139186
2.75,4826014.833025357,4596576.995401837,5079634.369592177
2.8,4739949.040569197,4514616.335182578,4989031.8755983235
2.85,4656905.098851563,4435533.627529175,4901610.277589653
2.9,4576726.705105014,4359180.012653922,4817205.046345634
2.95,4499268.153357429,4285416.7229551375,4735662.807167124
3,4424393.451365734,4214114.242001665,4656840.410332921
3.05,4351975.524408604,4145151.546240203,4580604.092986818
3.1,4281895.49613148,4078415.4200858073,4506828.722132357
3.15,4214042.037882545,4013799.8362418637,4435397.109723337
3.2,4148310.7790484466,3951205.394115057,4366199.391964563
3.3,4022829.0046189264,3831712.454018273,4234099.477267053
3.4,3904735.206193083,3719255.679103302,4109776.3816329422
3.5,3793396.1275621387,3613231.9681457374,3992563.5196458832
3.6,3688248.8742860374,3513105.231129544,3881868.3709091768
3.7,3588791.4053463456,3418397.333678399,3777162.4712593565
3.9,3405195.1131864144,3243570.716903427,3583875.569707213
4,3320290.355454549,3162722.5359942205,3494488.321083174
4.1,3239532.8379985094,3085824.1047770833,3409466.5912211807
4.2,3162626.328241405,3012593.2969156415,3328498.556422242
4.32,3075045.302136058,2929198.976343116,3236291.429545667
4.45,2985504.4589236244,2843939.5064833607,3142019.9609089
4.58,2901055.100732874,2763529.0644378876,3053107.9552248577
4.75,2797608.2777786264,2665031.180381041,2944193.1046855785
4.88,2723374.0508279908,2594349.4213652294,2866033.8808992365
5,2658283.1505495566,2532374.24061588,2797500.5957989516
5.15,2581194.109024411,2458976.289436372,2716333.5581203927
5.3,2508478.2231092164,2389743.239852182,2639769.849873579
5.5,2417707.962543282,2303322.259121451,2544194.6590002757
5.65,2353857.9934068425,2242532.9190088506,2476963.5136402445
5.8,2293319.3919088873,2184897.253048839,2413218.0268957177
6,2217323.0150616304,2112546.5963761173,2333194.330210714
6.15,2163579.1343122646,2061382.0703728823,2276601.2017091885
6.3,2112402.5597078595,2012662.5877314366,2222710.5099260076
6.45,2063614.1730901855,1966217.559491864,2171333.7096486855
6.6,2017051.139684075,1921891.9046787422,2122299.396067455
6.75,1972565.098832845,1879544.3271920343,2075451.4002862277
6.88,1935585.579857922,1844343.131827975,2036507.7591934982
7,1902674.5767868075,1813015.3680009388,2001848.144915538
7.15,1863095.6983340923,1775341.2485051963,1960165.6105509815
7.32,1820208.9282672112,1734519.415302515,1914998.3569429955
7.5,1776927.9743416952,1693323.488033696,1869414.8184802516
7.65,1742423.6437128677,1660482.2313786973,1833073.9496861189
7.8,1709252.889340006,1628911.0348905963,1798136.8567175444
8,1666970.009067687,1588668.269533142,1753601.2338176188
8.2,1626760.6622111532,1550400.2748019048,1711248.2987174434
8.4,1588476.7303997336,1513965.985039051,1670922.1378407304
8.6,1551983.8735149645,1479237.4567341965,1632481.3410325416
8.8,1517159.963980962,1446098.3773724374,1595797.3534438543
9,1483893.7298161064,1414442.7731026672,1560753.0471648646
9.2,1452083.5746779942,1384173.8849709183,1527241.479167006
9.4,1421636.548540972,1355203.188613299,1495164.8078055687
9.6,1392467.4470389895,1327449.5364873332,1464433.34475951
9.8,1364498.0210930184,1300838.4051362167,1434964.7230602703
10,1337656.281383196,1275301.2327813825,1406683.1649571527
10.2,1311875.8846477875,1250774.8348453701,1379518.8359161871
10.4,1287095.5907938238,1227200.8869143832,1353407.2731576045
10.6,1263258.7814669223,1204525.4662334048,1328288.8788871926
10.8,1240313.0321133642,1182698.6441463141,1304108.4698352811
11,1218209.7307263217,1161674.122997102,1280814.875936949
11.2,1196903.7374407155,1141408.9119345378,1258360.5820107795
11.5,1166348.6841522814,1112348.1187068687,1226157.023213774
11.8,1137364.110449474,1084782.9478570689,1195606.6670624272
12,1118855.3696883703,1067181.6579969313,1176096.9672318078
12.2,1100960.6874524276,1050165.1523479994,1157233.6753732904
12.5,1075205.5288917131,1025675.43945908,1130082.864104787
12.8,1050673.067596717,1002350.1222278796,1104219.173907283
13,1034955.5537790873,987406.9717780036,1087647.765059524
13.2,1019720.9544896125,972923.7041091253,1071584.7200931294
13.5,997727.5516308838,952016.3497387738,1048393.8951737155
13.8,976704.5971814544,932033.1487513339,1026224.6711316243
14,963197.6101962226,919195.0782352432,1011980.3009572099
14.2,950077.2198238461,906725.156855464,998142.909533932
14.5,931086.4907885067,888677.20855486,978113.0536075641
14.8,912878.8169538098,871374.9388502198,958907.5472995979
15,901152.1827635553,860232.2474086,946537.4116158262
15.5,873183.8990680268,833659.4384086033,917031.5002885598
16,846997.1976239244,808783.11577045,889401.176360628
16.5,822429.9897353769,785448.9027983611,863475.8263157837
17,799339.2528953832,763520.5812273081,839104.9061810558
17.5,777598.307112443,742877.497250531,816155.074500113
18,757094.5451836837,723412.3998768551,794507.8031451941
18.5,737727.531032638,705029.6298255724,774057.375565664
19,719407.3983102121,687643.5943860728,754709.201103234
19.5,702053.4953653786,671177.4769151126,736378.3886438874
20,685593.2334708241,655562.1399100382,718988.534222534
20.5,669961.1036014158,640735.1886083138,702470.6860518346
21,655097.8336732831,626640.1683588774,686762.4574044492
21.5,640949.6633777743,613225.8739884291,671807.2632795101
22,627467.7179019446,600445.753345189,657553.6611603235
22.5,614607.4651531731,588257.3903702173,643954.7796712946
23,602328.2437806977,576622.0555941972,630967.8217580639
23.5,590592.8514497936,565504.3140175188,618553.6312916141
24,579367.1845816994,554871.682005191,606676.3138469837
24.5,568619.922206989,544694.3261944022,595302.9039173168
25,558322.247756461,534944.7985328899,584403.0720622707
25.5,548447.60358239,525597.8024889316,573948.8665095596
26,538971.473804082,516629.98623671837,563914.4845716808
27,521125.7687169571,499747.1292988933,545011.5325012663
27.5,512715.7416013356,491793.55716659577,536100.3878112952
28,504623.0366044822,484141.82701247133,527523.613766589
28.5,496830.84746933426,476775.9303209646,519263.5223638622
29,489323.5262402718,469680.9618786081,511303.6447253025
29.5,482086.48514365527,462843.026325163,503628.6278160329
30,475106.10827990837,456249.15404898307,496224.14148960647
30.5,468369.672001204,449887.22535428306,489076.79467633285
31,461865.2729940957,443745.9019663584,482174.0596821564
31.5,455581.763210966,437814.5650594005,475504.20369689824
32,449508.690901183,432083.25909347524,469056.2267233185
33,437955.2168932721,421183.9330112051,456785.24095895584
34,427133.24654589617,410979.7199247447,445285.7415124356
35,416979.354172403,401410.2074939091,434490.974714172
36,407437.1578375274,392421.69381151407,424341.5994392379
37,398456.36839041486,383966.2816355049,414784.686152829
39,382003.63556998566,368487.7366745522,397263.65743098373
40,374454.9645087443,361391.53354894347,389218.780104284
41,367313.17711825523,354681.2740760821,381603.71708165243
42,360548.59994299954,348328.7037414668,374387.2312526824
43.2,352891.30919008254,341141.8598678497,366213.86469316995
44.5,345116.804491651,333849.698651007,357910.13798368396
45.8,337837.9004417389,327026.9576410017,350130.6247482119
47.5,328997.5087427789,318746.94359010196,340675.06938544987
48.8,322708.69558664295,312861.29726346955,333943.5200578436
50,317234.8232539372,307741.6043848289,328080.5821120093
51.5,310803.5879532655,301730.58519829024,321187.5659388295
53,304791.51884219435,296115.5680611744,314738.97300305177
55,297365.6972844243,289186.16221673443,306767.07312365726
56.5,292198.0741402189,284368.1435259293,301214.63278375147
58,287343.65894004604,279845.42552595644,295994.9070125103
60,281315.57641058555,274233.90261345,289507.73797823477
61.5,277099.2362030507,270312.15755964053,284966.4942414059
63,273122.1077514656,266615.47037735453,280679.87571850483
64.5,269366.43175011047,263126.99792408495,276629.1259259719
66,265816.0886797642,259831.45894347903,272797.21367617167
67.5,262456.4167463511,256714.96041874454,269168.64169791515
68.8,259688.57381398065,254149.00748027765,266177.4052329634
70,257244.91336372148,251884.7938444792,263535.0687802628
71.5,254331.4683862577,249186.81267362426,260382.9194318764
73.2,251206.7782235119,246295.1037771839,256999.92139092908
75,248088.6338790651,243411.47564415698,253621.54908354202
76.5,245629.0730790968,241138.37216677848,250954.92339099207
78,243287.26723191165,238975.34123813597,248414.44015769393
80,240335.45329666042,236250.65254981685,245210.00264358456
82,237564.18610804257,233694.4848409098,242199.25665169465
84,234959.19481947133,231293.38979433163,239367.0412384762
86,232507.59006214215,229035.2301678817,236699.6531729484
88,230197.70538184594,226909.02867535257,234184.68023460478
90,228018.95976842704,224904.83700406188,231810.85666194346
92,225961.7380852259,223013.621921072,229567.9373973688
94,224017.28674697154,221227.16593645664,227446.58834329134
96,222177.62243446754,219537.98041160067,225438.29030676052
98,220435.45199370186,217939.22934335013,223535.2546876541
100,218784.10196181806,216424.66233619757,221730.34927528238
102,217217.45640533624,214988.5555066237,220017.03277354577
104,215729.9019570746,213625.65925570478,218389.29688599444
