Frequency,Nominal,Min,Max
3.9496835316262997,0.006661081976616585,0.0062710033844675245,0.007057946177202363
4.049691346263317,0.006661745636579026,0.006271563263540966,0.007058727826841393
4.149698784249286,0.0066624260947593696,0.006272137290618131,0.0070595292969703755
4.2595774438317235,0.006663194328054421,0.00627278533485706,0.007060434196412299
4.384518217546827,0.0066640918685326525,0.006273542418211202,0.007061491464790038
4.514532090925925,0.006665053061977835,0.006274353147718388,0.007062623783967889
4.664225552007536,0.006666198416511617,0.006275319146149337,0.00706397314918743
4.814561246884289,0.006667380110102683,0.0062763157250995205,0.007065365430590715
4.9396356140913875,0.006668394477617709,0.0062771711310867385,0.0070665606573329905
5.07444578254611,0.006669520512891083,0.006278120640908495,0.007067887560941521
5.2244616947586096,0.006670807325180068,0.006279205643332804,0.007069404044543259
5.399073994677235,0.006672358229511234,0.006280513201777481,0.007071231937989121
5.574495492867494,0.006673958857921304,0.006281862555657023,0.007073118631007458
5.724508712544685,0.006675373535262865,0.006283055034297449,0.007074786317837689
5.89915248150105,0.006677073937335612,0.006284488215208265,0.007076791052932942
6.074537019394977,0.006678824396943221,0.0062859634333921974,0.007078855041530881
6.224548176373929,0.0066803677969413024,0.006287264010218494,0.007080675099058396
6.374558808262734,0.006681949995014799,0.006288597147802111,0.007082541114898972
6.524568951279464,0.006683571079479692,0.006289962910052868,0.007084453209551022
6.674578638386096,0.006685231141328209,0.006291361362782777,0.007086411507229967
6.814690014960328,0.006686815375161215,0.006292695798749797,0.007088280568241109
6.9397406291589885,0.006688258874157633,0.006293911570270149,0.0070899837780169315
7.074602462329597,0.006689849250392838,0.00629525091153961,0.007091860501365432
7.234500673854416,0.006691775174133673,0.0062968726494500235,0.0070941334754842204
7.409453421137082,0.006693932793359752,0.006298689245159403,0.0070966802731251295
7.574628703771558,0.0066960154800801645,0.006300442510936719,0.007099138995963581
7.72463591375024,0.00669795116448196,0.006302071805067008,0.007101424517407116
7.899367063252599,0.006700261076502986,0.006304015809236649,0.007104152339994141
8.099382692526634,0.006702966085013976,0.006306291948680437,0.007107347322638525
8.299397568498572,0.00670574239106275,0.006308627649655737,0.007110627189156383
8.499411744350311,0.006708590291600619,0.006311023125614249,0.007113992347470538
8.699425268372618,0.006711510093782583,0.006313478597187273,0.0071174432198103784
8.899438184514796,0.006714502115165583,0.006315994292321322,0.0071209802430061316
9.09945053286186,0.0067175666839125875,0.0063185704464132535,0.007124603868782522
9.299462350050135,0.0067207041389989106,0.006321207302451637,0.007128314564059741
9.499473669630333,0.006723914830421792,0.006323905111155858,0.007132112811255614
9.699484522385713,0.006727199119409735,0.00632666413112102,0.007135999108591958
9.899494936611665,0.006730557378640426,0.006329484628962843,0.007139973970404148
10.099504938362077,0.006733989992453206,0.006332366879464355,0.007144037927454662
10.299514551666986,0.006737497357071879,0.006335311165724749,0.007148191527245445
10.499523798725349,0.006741079880822802,0.0063383177793104924,0.007152435334337806
10.699532700076205,0.006744737984358125,0.006341387020406311,0.007156769930670266
10.89954127475097,0.006748472100882308,0.006344519197970525,0.007161195915878955
11.099549540409285,0.006752282676376049,0.006347714629888487,0.007165713907622056
11.349008767288884,0.006757158153597488,0.006351801703667194,0.007171496619996888
11.64903429473877,0.006763163870532466,0.006356834286240368,0.0071786229740321925
11.899579824514815,0.006768298947633717,0.006361135580062501,0.007184718941969969
12.099586769803338,0.006772498970875675,0.006364652375505704,0.007189706884674362
12.349089035228468,0.006777864913423474,0.006369143753492206,0.007196082109002997
12.649110640673518,0.0067844643771383245,0.006374665188673077,0.007203926681743227
12.89961239727768,0.006790098715556296,0.006379377036413331,0.007210627378576575
13.099618315050252,0.006794701384588237,0.006383224572776509,0.0072161036033055355
13.349157276772193,0.00680057481566315,0.006388132343652304,0.007223094994584611
13.649175799292792,0.006807789189355554,0.006394157651228366,0.007231687208532532
13.899640283115243,0.006813941049921621,0.006399293005657591,0.007239018033360021
14.099645385611653,0.006818961419187549,0.0064034819564939074,0.007245003487142243
14.349216006458331,0.006825361724515198,0.006408819858794894,0.007252638028059092
14.64923206178399,0.006833215063797267,0.006415366079080749,0.007262011377280653
14.89966442575134,0.006839905165225774,0.006420939610639586,0.007270001186606213
15.247950681976906,0.006849529751718474,0.006428952176744496,0.007281504571224507
15.748015748023622,0.006863729534943106,0.006440763231185172,0.007298492735503599
16.24807680927192,0.0068785031428755875,0.006453037624255363,0.007316189480305872
16.748134224444225,0.006893863981588481,0.006465784830859753,0.007334613488043764
17.24818831066034,0.006909826192001198,0.006479014845625955,0.007353784457085883
17.74823934929885,0.006926404665942334,0.0064927381962345,0.007373723118655705
18.24828759089466,0.006943615060405623,0.0065069659558912845,0.007394451250155431
18.748333259252675,0.0069614738097192675,0.006521709754793142,0.007415991684396656
19.248376554920156,0.006979998135328511,0.006536981790424825,0.007438368314184384
19.748417658131498,0.006999206052865887,0.006552794836519039,0.007461606091651326
20.248456731316587,0.007019116376158293,0.006569162250488579,0.007485731021686924
20.74849392124643,0.007039748717790887,0.006586097979137643,0.0075107701487577665
21.24852936087578,0.007061123485825184,0.006603616562434587,0.007536751536352939
21.748563170931547,0.007083261876223707,0.006621733135119539,0.007563704238225494
22.24859546128699,0.007106185860513787,0.0066404634258972394,0.0075916582605391435
22.74862633215465,0.007129918168176432,0.006659823753957853,0.007620644513950961
23.24865587512534,0.007154482263212001,0.00667983102252896,0.007650694754591859
23.748684174075834,0.007179902314286888,0.006700502709169227,0.007681841512822217
24.24871130596428,0.007206203157832509,0.006721856852463985,0.007714118008557627
24.748737341529164,0.0072334102534054355,0.006743912034779486,0.007747558051872265
25.248762345905195,0.0072615496305842,0.006766687360696683,0.007782195927501248
25.748786379167466,0.007290647826615057,0.0067902024307251105,0.007818066261759397
26.49528259898354,0.007336280365457127,0.006827004900210229,0.007874423727752879
27.248853186877426,0.007383966716282404,0.006865388849536485,0.007933420059109067
27.748873851023216,0.007417172940960991,0.006892067598070887,0.00797456754563361
28.24889378365107,0.007451475345903865,0.00691959022501222,0.00801711965284312
28.7489130229301,0.0074869015746573675,0.0069479784321055706,0.00806110906885538
29.248931604419333,0.007523479005785023,0.006977254060913503,0.008106567257047236
29.748949561287034,0.007561234581806594,0.007007439010714723,0.008153524118959232
30.24896692450835,0.007600194619416634,0.007038555146689523,0.008202007622857886
30.748983723043597,0.0076403845997160425,0.007070624197680973,0.008252043395940985
31.24899998399949,0.007681828937145799,0.007103667642784797,0.00830365427827061
31.74901573277509,0.007724550725828026,0.0071377065860024295,0.008356859836643292
32.49615361854384,0.00779124110170085,0.007190807141735617,0.008439894754730518
33.49626844888845,0.007884598868997707,0.0072651084983003265,0.008556027293253544
34.49637662132068,0.007983379833411576,0.007343735062559342,0.008678657950690827
35.4964786985977,0.008087649610828637,0.00742680952113867,0.008807682090338314
36.49657518178932,0.008197408522304998,0.007514425948300173,0.008942861956280766
37.986839826445156,0.008372772761095324,0.007655053151526271,0.009157533463131718
39.496835316262995,0.008558292853482388,0.007804849265534529,0.009390564068369783
40.496913462633174,0.008688104873510282,0.007910630810009946,0.00955026771433471
41.49698784249286,0.00882180604511716,0.008008741035721294,0.009711628369643274
42.595774438317235,0.008972467344211544,0.008121939351992366,0.00989601891775466
43.84518217546827,0.00914647263515551,0.008256432005348084,0.010103428641418357
45.14532090925925,0.009328091876443385,0.00840176599048739,0.010310190429146986
46.64225552007536,0.00953387403604463,0.00857428182596516,0.010529194618440624
48.14561246884289,0.009730243403915175,0.008748592548835477,0.010719824004175284
49.39635614091387,0.009881068911987579,0.008892325409134247,0.010848289332262288
50.7444578254611,0.010024763967950484,0.009042191966235362,0.010948265827797211
52.244616947586096,0.010155011012843867,0.009197547518259675,0.011006756098023648
53.99073994677235,0.010255562634889956,0.00935486744433904,0.010993521607659491
55.744954928674936,0.010295145053093294,0.009479092403650503,0.010916710954198168
57.245087125446844,0.010270865018926618,0.009549611843736193,0.010824520664654941
58.9915248150105,0.01017121685900363,0.009581695508509304,0.010675586677742432
60.74537019394976,0.01000134381121467,0.00949373307720666,0.010526281327962937
62.245481763739285,0.009799831468884232,0.009295127494082532,0.010330413056270058
63.745588082627336,0.009554387377229143,0.00906102099301987,0.010080179075142342
65.24568951279464,0.009272537060338037,0.008794393259987895,0.009784229195612077
66.74578638386096,0.008962578350538049,0.008416346793655941,0.009452502385773656
68.14690014960328,0.008655453076567577,0.008062078054430193,0.00913881211227914
69.39740629158989,0.008371846280390772,0.007749083608041418,0.008875698549103436
70.74602462329597,0.008060697905926055,0.007418446209340032,0.00859530073399938
72.34500673854416,0.007691726902235321,0.0070400256734126,0.008274465460332123
74.09453421137081,0.0072946354849891225,0.006646330941884327,0.007910949905177931
75.74628703771559,0.006931431814657658,0.006296251066965975,0.00756372378712858
77.2463591375024,0.006614186726756817,0.005997251564791403,0.007249599535328565
78.99367063252599,0.006262357153248191,0.005671897583283033,0.006890461049189796
80.99382692526635,0.005885021049239259,0.005328797684057354,0.0064944648461946345
82.99397568498571,0.005535360460276004,0.005015464233705264,0.006118372966432143
84.99411744350311,0.005212987894735746,0.004729795812934175,0.005764790076627458
86.99425268372619,0.004916760917918473,0.0044695043205185934,0.005434849586048227
88.99438184514796,0.004645099003156031,0.004232287077283081,0.0051286269316921365
90.9945053286186,0.0043962068019806145,0.004015930692343853,0.004845480761703633
92.99462350050136,0.004168224228958179,0.0038183683897987123,0.0045843173620544915
94.99473669630333,0.003959322387990861,0.0036377068013950997,0.004343785711050635
96.99484522385713,0.003767761074162218,0.0034722335126099084,0.0041224153304648655
98.99494936611666,0.0035919199693664325,0.003320413053200058,0.003920179005129987
100.99504938362078,0.0034303124304619816,0.0031808764214028727,0.0037346756635015235
102.99514551666987,0.0032815881790043194,0.003052407415355669,0.0035637630412211872
104.9952379872535,0.0031445292407664823,0.002933032753677962,0.0034061570890942484
106.99532700076205,0.0030180420572179178,0.0028212836866340144,0.0032606738998940555
108.9954127475097,0.0029011476838940817,0.002717997642362224,0.0031262315751776583
110.99549540409286,0.0027929712952133173,0.002622407279574491,0.0030018475711249253
113.49008767288886,0.0026691968337091833,0.0025130363310965544,0.0028608265227491256
116.4903429473877,0.002534677402589434,0.0023941999471943673,0.0027075936159937806
118.99579824514814,0.002433024073309851,0.0023044456861281803,0.002591787652257238
120.9958676980334,0.002358261588847797,0.002238484904094795,0.0025065959723662695
123.4908903522847,0.0022721940504667392,0.0021626330734992303,0.002408478049283605
126.49110640673517,0.002178070801232784,0.0020798218764566307,0.0023010888451417497
128.9961239727768,0.0021065537131964547,0.0020170388691831296,0.002219395248778625
130.99618315050253,0.0020537432661579718,0.001970790058703822,0.0021589859555043284
133.49157276772192,0.0019927527069219155,0.001917533848886915,0.002089095364871235
136.49175799292792,0.0019258720002930986,0.0018593698341663753,0.0020122600805684045
138.99640283115244,0.0018749648512131631,0.0018153126984527474,0.001953591662016809
140.99645385611655,0.0018373497814024517,0.0017829229064677853,0.0019100979279990844
143.49216006458332,0.001793922818212913,0.0017457475171406838,0.0018596877289381148
146.4923206178399,0.0017463758032777521,0.00170536474673323,0.001804203772051495
148.9966442575134,0.0017102880968718607,0.0016737197704567888,0.0017618281802408366
152.47950681976906,0.0016654137652410686,0.001632747564017532,0.0017086368963073273
157.48015748023622,0.0016100803569003524,0.0015799012778689354,0.0016452648360034657
162.48076809271922,0.0015646232919080071,0.0015367359217838502,0.0015949777109832252
167.48134224444226,0.0015279738540843438,0.0015001039903612353,0.0015568908174230216
172.4818831066034,0.001499261373483083,0.001470804603300249,0.0015310607229268866
177.48239349298848,0.0014777746246184308,0.0014484273182629199,0.0015137984480491499
182.4828759089466,0.0014629319192753687,0.001429294496557936,0.001503398560453129
187.48333259252675,0.0014542576239933533,0.0014161244989506663,0.001499395675035904
192.48376554920156,0.0014513634413371153,0.001408517821144001,0.0015014101808447724
197.48417658131498,0.0014539332198655105,0.0014061478734444252,0.0015112766337584322
202.48456731316588,0.0014617103565478335,0.0014087489955841633,0.001528442460475559
207.4849392124643,0.0014744870656049765,0.0014126361427996554,0.0015507751908602173
212.4852936087578,0.001492094935778079,0.0014208500844906614,0.0015781239149630657
217.48563170931544,0.0015143963023931443,0.001433573673399264,0.0016103565081498207
222.48595461286988,0.0015412760348051987,0.0014506758056104384,0.0016473495178331247
227.48626332154652,0.0015726333942653347,0.0014720506720053185,0.0016889776031351455
232.4865587512534,0.001608373660716683,0.00149761121168088,0.0017351022609696275
237.48684174075834,0.0016483992676095119,0.0015272825432275068,0.0017855596539815533
242.4871130596428,0.001692600229817568,0.001560995137148744,0.00184014746648371
247.48737341529164,0.001740843710079442,0.001598677518090881,0.0018986108665712325
252.48762345905195,0.001792962653811053,0.0016402483152640028,0.001960627857104171
257.48786379167467,0.0018487435408128146,0.0016856075200485858,0.0020257945618188822
264.9528259898354,0.0019390202143444515,0.0017608831111426953,0.0021285410388428815
272.48853186877426,0.0020349532896120526,0.0018429279857322977,0.002234649616284933
277.48873851023217,0.0021018651005590733,0.0019017140941073028,0.002306305809187153
282.4889378365107,0.002170229885498881,0.001963145650496652,0.0023774831952801207
287.489130229301,0.002239305690377844,0.002026786356554844,0.002447125505032116
292.4893160441933,0.002308242890248678,0.00209210649809781,0.0025141009083512254
297.4894956128703,0.002376093704658667,0.002158476834640285,0.00257723746281107
302.48966924508346,0.0024418308145334,0.0022251669956200753,0.002635368328276858
307.48983723043597,0.0025043757259511504,0.0022913499297341385,0.00268738394897283
312.4899998399949,0.002562636431319272,0.0023561138188664637,0.002732286766959231
317.49015732775086,0.00261555252926147,0.002418482447289959,0.002769242834375212
324.96153618543843,0.002681853483699899,0.0025047167980639176,0.0028200705281963027
334.9626844888845,0.002744751732068647,0.0026026041405248857,0.0028773326200982044
344.9637662132068,0.002774084981576065,0.0026226387114697265,0.002895655336771698
354.96478698597696,0.002769592183970177,0.0025886517727616598,0.002896345614386343
364.9657518178932,0.002734020241812783,0.0025360236369769504,0.0028811110235099757
379.86839826445157,0.0026304295986285275,0.002432899514934221,0.0027892730986610213
394.96835316262997,0.002489580549776019,0.002314621306967548,0.0026373695711761004
404.96913462633177,0.0023785748601731064,0.0022288544524935506,0.002522418652756968
414.9698784249286,0.0022595180111852674,0.0021119420899851572,0.0024020734457092102
425.9577443831724,0.002122957994209024,0.001966622192864106,0.00227183538129808
438.45182175468267,0.0019652413772198694,0.0018043518496525905,0.002125999617926035
451.45320909259243,0.0018029280820365677,0.0016426857184539008,0.0019700063949802888
466.42255520075355,0.0016233897128482794,0.001469438560099177,0.00179069683499408
481.45612468842893,0.001455638061891798,0.001311807164427129,0.0016174053742723628
493.9635614091388,0.0013274058723968013,0.0011938258476369425,0.0014811387050896944
507.444578254611,0.0012016907488815094,0.0010799239905790099,0.0013445982456534666
522.446169475861,0.0010768448127488543,0.0009681697696163235,0.0012065237235105244
539.9073994677235,0.000950592676202009,0.0008562762229410714,0.0010646612608674194
557.4495492867494,0.0008418432818543091,0.0007605029191753091,0.0009411150773533838
572.4508712544684,0.0007617952622979084,0.0006902549970922023,0.0008495285336284495
589.9152481501051,0.000681493049303712,0.0006198734526518101,0.0007573026121985871
607.4537019394976,0.0006123497242297833,0.00055925976618143,0.0006777643288507232
622.4548176373928,0.0005611915703168502,0.0005143544187694732,0.0006189161799655021
637.4558808262733,0.0005162008306344036,0.00047478928001652026,0.0005672188785507952
652.4568951279464,0.0004764928732449253,0.00043978906968937146,0.0005216738283863828
667.4578638386097,0.0004413149507880844,0.00040870001153568117,0.0004814179992787835
681.4690014960329,0.0004119700663058248,0.0003826949473918576,0.0004479231469382163
693.9740629158989,0.00038829425875117,0.0003616574897701157,0.0004209694299270168
707.4602462329598,0.0003651079950088537,0.00034099835382159975,0.00039464531625924807
723.4500673854416,0.0003403401831152273,0.0003188622014722425,0.0003666132351518483
740.9453421137082,0.00031616808736993976,0.00029718203359441084,0.0003393548326262703
757.4628703771558,0.00029574917896026695,0.0002788028869198523,0.0003164140288380952
772.463591375024,0.0002789779915612315,0.0002636556847984824,0.00029763861816196283
789.9367063252599,0.00026129251689369315,0.0002476272037079749,0.00027791212000879024
809.9382692526635,0.0002431251494396115,0.00023110006119820938,0.000257728694727629
829.9397568498572,0.00022687587238774096,0.00021625824607370274,0.00023975345601410809
849.9411744350311,0.00021226789438010934,0.00020286327473556553,0.00022366130566636976
869.9425268372618,0.00019907245962105075,0.00019071761085690618,0.00020918417278707898
889.9438184514795,0.00018709946230120473,0.00017965670986173476,0.00019609982124234912
909.9450532861861,0.00017619005433940277,0.000169542751812941,0.00018422302779836025
929.9462350050136,0.00016621079773727643,0.0001602596801717085,0.00017339860465591159
949.9473669630333,0.0001570490172438139,0.00015170925455110983,0.0001634958584558262
969.9484522385712,0.00014860908915200106,0.00014380789429278658,0.00015440417069898397
989.9494936611666,0.0001408094632001066,0.00013648414169665889,0.00014602945645287953
1009.9504938362078,0.00013358026112136065,0.00012967661311713127,0.00013829131353445545
1029.9514551666987,0.00012686133085656082,0.0001233323360323988,0.00013112071676811153
1049.952379872535,0.00012060066250581775,0.0001174053929518904,0.000124458144407041
1069.9532700076204,0.00011475309279590341,0.00011185581041775277,0.0001182520487218479
1089.954127475097,0.00010927924072560053,0.00010664864469976524,0.00011245760190750352
1109.9549540409287,0.00010414462929141043,0.00010175322606543753,0.00010703566321733916
1134.9008767288885,0.0000981719715835436,0.00009604476794743193,0.00010074587914212294
1164.903429473877,0.00009155138189740056,0.00008970029660486213,0.00009379409806886145
