Frequency,Nominal,Min,Max
3.9,-108.14048650401051,-109.24792359373107,-107.03420743895317
4,-108.55771350902717,-109.685510308708,-107.43031011551322
4.1,-108.97169857540084,-110.11936087701096,-107.82362644155988
4.2,-109.38240419654117,-110.5494373451463,-108.21412041280267
4.32,-109.8708726807667,-111.06049802738784,-108.6789397203155
4.45,-110.3945953199284,-111.60789310540552,-109.17778797337606
4.58,-110.9125844937953,-112.14872275665489,-109.6716781853231
4.75,-111.58120587951136,-112.84596376642597,-110.30995360346594
4.88,-112.08574757823499,-113.37144288381423,-110.79217977615784
5,-112.54623671497691,-113.85053566871375,-111.23275142987998
5.15,-113.11472317238184,-114.44130969091421,-111.77725542179793
5.3,-113.67524466897625,-115.02305664006245,-112.3148025241263
5.5,-114.4101443339864,-115.78463032161724,-113.02062040900721
5.65,-114.95193096970972,-116.34522368082212,-113.54174378421737
5.8,-115.48564579288134,-116.89673732193677,-114.0557650337599
6,-116.18468761106408,-117.61797577275364,-114.73003248069641
6.15,-116.6995303055535,-118.14834046428273,-115.22738725163559
6.3,-117.20628729132694,-118.66967789256712,-115.71757486252247
6.45,-117.70497038050117,-119.18202143022589,-116.20058989555973
6.6,-118.19559807272124,-119.68541169409202,-116.67643292817021
6.75,-118.67819517350347,-120.17989605674232,-117.14511024583524
6.88,-119.08997374911357,-120.6012866035575,-117.54550990249928
7,-119.4647639228149,-120.98439413702224,-117.91034943062087
7.15,-119.9261113136329,-121.45540732057545,-118.35998924169787
7.32,-120.43943411821917,-121.9787306029344,-118.86100133943546
7.5,-120.97198463628494,-122.5208014065784,-119.38159486621154
7.65,-121.40722579350603,-122.96316522266524,-119.80769388142541
7.8,-121.83475595568714,-123.39710566936054,-120.22680739154443
8,-122.3929096230873,-123.96273811093837,-120.7748320647142
8.2,-122.93762291914499,-124.51375881229768,-121.31062147540705
8.4,-123.46906163576617,-125.05038671454892,-121.83429345617857
8.6,-123.98739947334347,-125.5728475890447,-122.34597427843511
8.8,-124.492816974231,-126.08137283181833,-122.84579774390669
9,-124.98550052349034,-126.57619834890762,-123.33390432261415
9.2,-125.46564141598742,-127.05756352962008,-123.81044033775991
9.4,-125.9334349884389,-127.52571030437673,-124.27555719752391
9.6,-126.38907981463798,-127.98088228344888,-124.7294106733818
9.8,-126.83277696176634,-128.42332397266642,-125.17216022423459
10,-127.26472930547597,-128.85328006203835,-125.6039683653676
10.2,-127.6851409012224,-129.28105322563948,-126.01877695189324
10.4,-128.0942164092237,-129.69776634234938,-126.41918799941688
10.6,-128.4921605703183,-130.10294014215705,-126.80892426089461
10.8,-128.87917772996778,-130.49680487906087,-127.18816380780389
11,-129.25547140762757,-130.8795888794602,-127.55708488766525
11.2,-129.62124390873652,-131.25151817149532,-127.9158655305011
11.5,-130.1506140760418,-131.7895474357757,-128.43541111924958
11.8,-130.65743214519577,-132.30439701529218,-128.9331345893792
12,-130.9831072955201,-132.63511116706235,-129.25311759453038
12.2,-131.2992436539205,-132.95605617569103,-129.56383565189478
12.5,-131.75597543207488,-133.4196075970181,-130.0129129499174
12.8,-132.1922943439341,-133.86232375380476,-130.442092643236
13,-132.4721345983108,-134.14621997378694,-130.7174323401332
13.2,-132.74334988101086,-134.42134102062133,-130.9843362267
13.5,-133.13437844119665,-134.81797618793203,-131.36922073941548
13.8,-133.50695844197486,-135.19589823091545,-131.7360036782314
14,-133.74536896946762,-135.43774276493713,-131.97072110840003
14.2,-133.97598455802233,-135.67170327337948,-132.19776703386725
14.5,-134.30763139004827,-136.00822278415032,-132.524266532653
14.8,-134.6225978623362,-136.32791679041296,-132.83430317248644
15,-134.8235520830123,-136.53195677720169,-133.03207555814623
15.5,-135.29537899058107,-137.01132583559752,-133.4962500631279
16,-135.7252238249275,-137.4485563087977,-133.91877511091297
16.5,-136.11506561149784,-137.8457256018244,-134.30152032212828
17,-136.46675517982433,-138.20476868746408,-134.64624238726253
17.5,-136.78202029372238,-138.52748503502661,-134.95458841123317
18,-137.06247117899375,-138.81554572808676,-135.22809984183849
18.5,-137.30960626110087,-139.0705006002072,-135.4682167844396
19,-137.52481796943587,-139.29378526266234,-135.6762825471499
19.5,-137.70939850041208,-139.48672793370986,-135.85354829534268
20,-137.86454546006163,-139.65055600672517,-136.00117772249388
20.5,-137.99136732940624,-139.7864023160574,-136.1202516672553
21,-138.09088871364483,-139.89531107598376,-136.21177262507092
21.5,-138.16405535006322,-139.97824348067948,-136.27666911736966
22,-138.21173886030263,-140.03608296251483,-136.31579989306084
22.5,-138.23474124082657,-140.06964011290825,-136.32995794625842
23,-138.23379909162531,-140.07965727495383,-136.3198743413531
23.5,-138.2095875878104,-140.06681282054495,-136.2862218421107
24,-138.1627242021231,-140.03172512706502,-136.22961834573263
24.5,-138.0937721887719,-139.97495627020572,-136.15063012602678
25,-138.0032438406579,-139.8970154503024,-136.04977489222054
25.5,-137.891603533117,-139.79836216992365,-135.927524671681
26,-137.75927056793213,-139.67940918045338,-135.78430852603262
27,-137.43399428250942,-139.38203752580287,-135.4364950906994
27.5,-137.24168727945366,-139.20423423940562,-135.23256341784398
28,-137.02996476793243,-139.00736655106058,-135.00900149054044
28.5,-136.79905733508244,-138.7916507682585,-134.76605919747442
29,-136.54916414798603,-138.55727022146155,-134.5039568622728
29.5,-136.28045478761632,-138.30437705514865,-134.22288709812048
30,-135.99307099091502,-138.0330939130042,-133.92301658336083
30.5,-135.6871283130679,-137.74351553042885,-133.60448776859252
31,-135.36271772169448,-137.43571024711125,-133.26742052551114
31.5,-135.01990713435313,-137.10972145201046,-132.91191374747862
32,-134.65874291046276,-136.76556897277334,-132.53804691152584
33,-133.88143991885045,-136.02274250716263,-131.7354630694896
34,-133.03080330999498,-135.20696866065978,-130.8599743080479
35,-132.10657436276327,-134.31769201345531,-129.88165330230962
36,-131.10828697222038,-133.38232819151114,-128.71077218854742
37,-130.03531515934208,-132.44006325643588,-127.40228910560249
39,-127.66232043201951,-130.3562126139,-124.52530427515812
40,-126.36071866201405,-129.29454596368794,-122.95537134763214
41,-124.98139790210251,-128.165407541113,-121.29728733157916
42,-123.5237758876354,-126.9681220206766,-119.55114405166675
43.2,-121.67077331431928,-125.44052642040361,-117.34044831038335
44.5,-119.53548625660568,-123.67276996212122,-114.80619937098126
45.8,-117.26825141560269,-121.78689122186059,-112.13207346968451
47.5,-114.10871811820319,-119.14241481766656,-108.43731745964804
48.8,-111.54960791982121,-116.98498948930738,-105.47478307789179
50,-109.08392848186828,-114.89162257695305,-102.64837523986094
51.5,-105.87382965676889,-112.14197270509094,-99.01314280768491
53,-102.53879110578023,-109.2525409917336,-95.29354154720212
55,-97.9372128626005,-105.20308541748146,-90.2629688723912
56.5,-94.40460153083234,-102.0385711700687,-86.48416466501843
58,-90.83512199600936,-98.78618565701802,-82.74057851233148
60,-86.0720869712259,-94.35197830749502,-77.8615875426748
61.5,-82.53660799684148,-90.98521532362703,-74.32407958300267
63,-79.06427155653591,-87.6120739774027,-70.91667223874644
64.5,-75.68005500135851,-84.25844586914184,-67.65639683655368
66,-72.40485745557557,-80.94900088319393,-64.55471365321233
67.5,-69.25508305427604,-77.70623234536771,-61.61800361911572
68.8,-66.6360131974969,-74.96498155288579,-59.20795876253834
70,-64.31444052856382,-72.50141901878096,-57.09395880854232
71.5,-61.54568313646235,-69.52281170914533,-54.59782498947773
73.2,-58.58818944667562,-66.2941933611766,-51.95864465974453
75,-55.66327641621559,-63.055987609201196,-49.37268759622381
76.5,-53.38347301091979,-60.502981077263684,-47.37147916944385
78,-51.24115850926657,-58.08262356806538,-45.50080344548194
80,-48.587316516265005,-55.05847989906395,-43.194522198745105
82,-46.14946902670175,-52.25834664039156,-41.08455193921606
84,-43.9101328739887,-49.67048434874469,-39.15176920329335
86,-41.85203024057616,-47.281226070820054,-37.37847373494702
88,-39.95863056572237,-45.07602916817825,-35.74852560952537
90,-38.21446496335596,-43.04023106659479,-34.247358458995755
92,-36.60528048453017,-41.159560732429306,-32.861917940640566
94,-35.118086861711745,-39.420461009938336,-31.5805589586185
96,-33.74113466652142,-37.810271627560894,-30.392923617387666
98,-32.463852482074046,-36.31731391871012,-29.289813755146014
100,-31.276761967066193,-34.93090909448976,-28.26306636584206
102,-30.171383284842733,-33.64135369416486,-27.30543655334129
104,-29.14013883260439,-32.439869135501716,-26.41049030450157
106,-28.17626008036617,-31.318537113039536,-25.57250789935789
108,-27.273700230758383,-30.270228753389187,-24.786397897760445
110,-26.427054037459595,-29.288532672658963,-24.04762114629873
112,-25.631485247219935,-28.367685139962436,-23.352123997630144
115,-24.52454880539806,-27.08931336739204,-22.38219835811445
118,-23.510100272065607,-25.92096333665104,-21.49087909021703
120,-22.87973013029827,-25.196627062449664,-20.935776320821567
122,-22.28275525174393,-24.511909536689643,-20.4091613476593
125,-21.444384834446762,-23.55246087595937,-19.66802978357222
128,-20.667834366775832,-22.66610213174199,-18.97984220521358
130,-20.18118959326546,-22.111839446428306,-18.547705172657906
132,-19.717347994437954,-21.584433714570054,-18.135177391929258
135,-19.06093660372588,-20.83958648135,-17.550288904850497
138,-18.447578577488404,-20.145245707795926,-17.002572790007374
140,-18.060521061303803,-19.707926613859556,-16.656332535528882
142,-17.68964303844466,-19.289511367897724,-16.32411738153136
145,-17.161473948198292,-18.694715310189142,-15.85023825812091
148,-16.66437696001737,-18.136080563504017,-15.403396281702484
150,-16.348884078732667,-17.782128996215096,-15.119368839089107
155,-15.610598891251385,-16.955690156664307,-14.453388118449213
160,-14.936626133442982,-16.20353630354385,-13.843766972245339
165,-14.318681515058627,-15.515867221270131,-13.283409253659048
170,-13.749843377895264,-14.88452336232703,-12.766365651446433
175,-13.224286563129738,-14.302661450936592,-12.287612644491956
180,-12.737075440699293,-13.764502722636166,-11.842880144494826
185,-12.28400154411503,-13.265135893206345,-11.428515910753982
190,-11.861455139119752,-12.800361710338125,-11.041377997454584
195,-11.466322832337758,-12.36656935998113,-10.678748761854923
200,-11.095905329179516,-11.960637471119915,-10.338265596725751
205,-10.747850907306685,-11.579854263124913,-10.017864740103105
210,-10.42010124091234,-11.221852701197776,-9.715735389049653
215,-10.110847001908269,-10.88455750271328,-9.430281991311691
220,-9.818491253988368,-10.566141565594604,-9.160093072271149
225,-9.541619099010168,-10.264989936753732,-8.903915318759497
230,-9.278972371091305,-9.979669852303749,-8.660631917718975
235,-9.02942843019372,-9.708905696390016,-8.429244359074495
240,-8.791982303996987,-9.451557967222142,-8.208857074973594
245,-8.565731579308377,-9.206605525551408,-7.998664413782961
250,-8.349863562974422,-8.973130545901594,-7.7979395457483
255,-8.143644325285825,-8.7503057042915,-7.606024974593286
260,-7.946409312198013,-8.537383225409798,-7.422324390454576
270,-7.576533279010876,-8.138596901627547,-7.077444693266346
275,-7.402842706900235,-7.951556958934416,-6.915320290769779
280,-7.236025968372184,-7.772054111476075,-6.759509433855377
285,-7.075663944360175,-7.599620511476795,-6.609633333800902
290,-6.921371979794254,-7.4338273933896835,-6.46534390607137
295,-6.7727963719540805,-7.2742810344543205,-6.3263206825772125
300,-6.629611281206634,-7.120619207485769,-6.192268090853497
305,-6.491516005956664,-6.972508057303526,-6.062913050182076
310,-6.358232572613019,-6.829639342903752,-5.938002842312812
315,-6.22950359882316,-6.691727996336434,-5.817303220788167
320,-6.10509039443399,-6.558509956616026,-5.700596728173216
330,-5.868340025611419,-6.30519123823965,-5.478368397403885
340,-5.6463858642125215,-6.067922652571835,-5.269860753539205
350,-5.437840135685896,-5.845176075387927,-5.073804198802641
360,-5.241489590890967,-5.63561810142337,-4.8890869159444
370,-5.056268442506862,-5.43807949268095,-4.714730660130133
390,-4.715559491461448,-5.0750590294134,-4.393740429939462
400,-4.558496789122876,-4.907856338309726,-4.245655736420862
410,-4.409385936395744,-4.749200261567395,-4.105005634786361
420,-4.267633496725612,-4.598444728251289,-3.971241705285137
432,-4.1064960953219245,-4.427154043775447,-3.819123015687523
445,-3.9420706108720576,-4.252453041985585,-3.663835157370029
458,-3.787291311306958,-4.088075402366203,-3.517600620781303
475,-3.5980954396968614,-3.8872386087553745,-3.3387798441021768
488,-3.462610787435704,-3.7434753853774345,-3.2106814283351817
500,-3.344018701772513,-3.6176733076954597,-3.098527433396681
515,-3.2038289731934317,-3.4690007383803603,-2.9659185360074725
530,-3.071870524022719,-3.32909348581525,-2.841069602199083
550,-2.907561391192088,-3.1549292091188796,-2.6855828214114315
565,-2.792282291161563,-3.0327594420418618,-2.5764772449900417
580,-2.683231762754472,-2.9172051203217997,-2.473257278833028
600,-2.5467124927711793,-2.772559039304158,-2.3440284067908035
615,-2.4504425160187466,-2.67056517344096,-2.2528963210381225
630,-2.359001223032818,-2.573689870387566,-2.16633500545752
645,-2.2720511082975947,-2.4815730821980275,-2.084026783270455
660,-2.1892849302653885,-2.3938873578279822,-2.005682212563207
675,-2.1104222984153176,-2.3103341337972387,-1.9310369285803943
688,-2.045033408450482,-2.241052553369193,-1.869149070558184
700,-1.9869722347220742,-2.1795314065961917,-1.8142005429260348
715,-1.9173221141962091,-2.1057252909663084,-1.7482901707145246
732,-1.8420761413344777,-2.025981373258961,-1.6770927642874713
750,-1.7663880011364899,-1.9457587658404878,-1.6054871777901765
765,-1.7062357105475252,-1.8819943718917336,-1.5485877581931247
780,-1.6485712741793652,-1.820859340550195,-1.4940493554452858
800,-1.5753060448967569,-1.743172137752435,-1.424767884295398
820,-1.505891401985682,-1.6695536788509897,-1.3591412362416124
840,-1.4400411970620102,-1.5997013835631309,-1.2968979030838426
860,-1.3774953055596018,-1.533340351936064,-1.2377909378823444
880,-1.3180167757716612,-1.4702203060365029,-1.1815952854539686
900,-1.2613893520751733,-1.4101129364285927,-1.12810546047701
920,-1.2074153143649065,-1.3528095903227566,-1.0771335196672314
940,-1.1559135860476875,-1.2981192495645566,-1.0285072839870273
960,-1.1067180712203266,-1.245866755670236,-0.9820687744659451
980,-1.0596761883196926,-1.1958912463922147,-0.9376728313503392
1000,-1.0146475729324684,-1.1480447741880195,-0.8951858912758732
1020,-0.9715029268475539,-1.102191081758725,-0.8544849012100565
1040,-0.9301229940313255,-1.0582045137421874,-0.8154563512310715
1060,-0.8903976471638925,-1.015969046867114,-0.7779954109402164
1080,-0.8522250708188691,-0.9753774235334737,-0.7420051565633242
1100,-0.8155110293983082,-0.9363303759908901,-0.7073958776726231
1120,-0.780168209626795,-0.8987359301251073,-0.6740844540260014
1150,-0.7295494695930544,-0.8448829646263749,-0.62638368283997
1180,-0.6815857568519537,-0.7938451457288487,-0.5811935567465616
1200,-0.6509736039026273,-0.7612665796188932,-0.5523556215995518
1220,-0.6213811352343658,-0.7297702651056093,-0.524480945816644
1250,-0.5787820521135105,-0.6844261387568636,-0.48435869368748635
1280,-0.5381767170280602,-0.6412003131909193,-0.44611785915124885
1300,-0.512135705061847,-0.6134772430073214,-0.42159461739243687
1320,-0.48686762601261613,-0.5865763004499165,-0.39779994162825416
1350,-0.45032774170112067,-0.5476745843389474,-0.363391283721586
1380,-0.4153125715359464,-0.5103964665995263,-0.3304181646758225
1400,-0.39275984477560677,-0.4863869132386098,-0.30918008871358593
1420,-0.370803290384537,-0.46301294021046024,-0.28850264956160226
1450,-0.3389231937118967,-0.4290770523344742,-0.25847780383043717
1480,-0.30822870242042405,-0.3964066314741304,-0.229566557701926
1500,-0.28838317374890765,-0.37528582910595215,-0.2108719818246948
1550,-0.2407669998388988,-0.3246190782382262,-0.16600913911178633
1600,-0.1957536435427676,-0.27673706653311797,-0.12358513421428692
1650,-0.15306559163701802,-0.23134584278306597,-0.08333729439501268
1700,-0.11246207041656918,-0.1881901267639254,-0.045037942130075746
1750,-0.07373344935622746,-0.14704743590651692,-0.008489048564458347
1800,-0.03669659864913529,-0.10772321254734722,0.026482201145592472
1850,-0.0011910219935409704,-0.07004676411001683,0.06002710115652182
1900,0.032924377667797704,-0.03386786685813996,0.09227851289090719
1950,0.06577401339202074,0.0009460862925154875,0.12335345655159981
2000,0.09746790213320107,0.0345124900064453,0.1533552938798192
