Frequency,Nominal,Min,Max
3.9,1.000140148560841,0.9991034802978241,1.0011419112771063
4,1.0001473961956562,0.9990571367967769,1.0012010664743816
4.1,1.000154824086056,0.999009642659837,1.0012617033438898
4.2,1.0001624319916556,0.9989609995722287,1.0013238206874187
4.32,1.0001717987514882,0.998901113684487,1.0014003139938341
4.45,1.0001822376928469,0.9988343766160774,1.0014855829854619
4.58,1.0001929793611666,0.9987657083273085,1.0015733464873202
4.75,1.0002074819576166,0.9986730042172539,1.0016918731468842
4.88,1.0002189199608014,0.9985998951464735,1.00178538184504
5,1.0002297450474524,0.9985307081022153,1.0018739027763341
5.15,1.0002436359742144,0.9984419324486967,1.001987527008158
5.3,1.0002579254789414,0.9983506168973623,1.0021044498899048
5.5,1.0002775963655244,0.9982249244518864,1.0022654692101771
5.65,1.0002928118031276,0.9981277110421202,1.002390068274491
5.8,1.000308422250751,0.9980279826943413,1.0025179478998172
6,1.0003298486799137,0.9978911131378302,1.0026935471762748
6.15,1.000346376365205,0.9977855476962743,1.002829058756296
6.3,1.0003632951755304,0.9976774944320431,1.0029678310726127
6.45,1.0003806038835799,0.9975669618937554,1.0031098578363993
6.6,1.00039830123347,0.9974539588189586,1.0032551326002144
6.75,1.000416385940704,0.9973384941328515,1.00340364875737
6.88,1.000432371668429,0.99723644060608,1.0035349794612687
7,1.0004473843338666,0.9971406075731946,1.0036583603311857
7.15,1.0004664954959253,0.9970186236374823,1.003815486686247
7.32,1.0004886170180076,0.9968774413626253,1.0039974503677438
7.5,1.0005125728675979,0.9967245718829207,1.0041946079758601
7.65,1.0005329531323544,0.9965945352976647,1.0043624247473975
7.8,1.0005537109546008,0.996462104717491,1.0045334321469035
8,1.0005819727362752,0.9962818245780345,1.0047663915211833
8.2,1.0006108993524578,0.9960973319921578,1.0050049898426874
8.4,1.0006404870294678,0.9959086525822043,1.0052492073774564
8.6,1.0006707318972174,0.9957158125080002,1.005499023856916
8.8,1.000701629987881,0.9955188384594202,1.0057544184731946
9,1.0007331772344075,0.995317757648715,1.0060153698741698
9.2,1.0007653694688547,0.9951125978026061,1.0062818561582376
9.4,1.0007982024205422,0.9949033871541305,1.0065538548687927
9.6,1.0008316717140056,0.9946901544342489,1.0068313429884044
9.8,1.0008657728667554,0.9944729288631912,1.0071142969326727
10,1.0009005012868128,0.9942517401415589,1.0074026925437565
10.2,1.0009358522700256,0.9940266184411589,1.0076965050835562
10.4,1.0009718209971439,0.9937975943955825,1.0079957092265404
10.6,1.001008402530651,0.9935646990905099,1.0083002790521896
10.8,1.001045591811333,0.9933279640537479,1.0086101880370602
11,1.0010833836545785,0.9930874212449894,1.0089254090464355
11.2,1.00112177274639,0.9928431030452892,1.0092459143255579
11.5,1.0011804642707465,0.9924696187289112,1.0097365179855695
11.8,1.0012404683404748,0.9920878260025633,1.0102388487366156
12,1.001281190542573,0.9918287380925461,1.0105802008143134
12.2,1.001322481321653,0.9915660426288114,1.010926688748696
12.5,1.0013854699830955,0.9911653112080708,1.0114559808809942
12.8,1.0014497023684876,0.9907566593192039,1.0119966473554667
13,1.001493203844553,0.9904798836896559,1.0123633548546307
13.2,1.0015372412085481,0.9901996771296299,1.0127350327071267
13.5,1.0016042864705665,0.9897730136369305,1.0133017914868157
13.8,1.0016724966582673,0.9893388355743385,1.013879531616908
14,1.0017186045479112,0.9890452702983833,1.0142707302258982
14.2,1.001765210723431,0.9887484578408611,1.0146667149121997
14.5,1.001836036248733,0.9882972326513939,1.015269579669726
14.8,1.0019079356066523,0.9878389127752959,1.0158829883113212
15,1.0019564502536351,0.9875294878954864,1.016297715842363
15.5,1.002079704645676,0.9867426298552723,1.0173544802792174
16,1.0022056456648916,0.985937257289408,1.0184391779041186
16.5,1.0023341063125732,0.9851139721017694,1.0195510746808758
17,1.0024649047940877,0.9842733774509037,1.020689395020897
17.5,1.0025978427886721,0.9834160757536958,1.0218533189274626
18,1.0027327035342093,0.9825426665790048,1.0230419788562377
18.5,1.0028692497146123,0.9816537444269063,1.0242544562706914
19,1.003007221137089,0.9807498963890244,1.0254897778700787
19.5,1.00314633218619,0.9798316996852428,1.026746911466809
20,1.0032862690412323,0.9788997190719838,1.0280247614891038
20.5,1.003426686643361,0.9779545041170316,1.0293221640841326
21,1.0035672053983022,0.9769965863357676,1.0306378817961073
21.5,1.0037074076005905,0.9760264761835001,1.0319705977932871
22,1.003846833564937,0.9750446598984586,1.033318909617437
22.5,1.003984977450298,0.9740515961898737,1.03468132242914
23,1.004121282762207,0.9730477127654744,1.036056241722336
23.5,1.0042551375190183,0.9720334026926178,1.0374419654818956
24,1.0043858690679404,0.9710090205872468,1.0388366757586045
24.5,1.0045127385370847,0.9699748786248137,1.0402384296371328
25,1.0046349349102637,0.9689312423673622,1.0416451495740418
25.5,1.0047515687120183,0.96787832640103,1.0430546130850533
26,1.004861665291263,0.966816289778371,1.0444644417635822
27,1.005057879110347,0.964665184351664,1.047274830703873
27.5,1.0051415549064584,0.963576112128686,1.04866974608755
28,1.0052137942072144,0.9624779018495485,1.0500537100744742
28.5,1.0052730810569586,0.9613703593495172,1.0514233757802904
29,1.005317765141849,0.9602532032153727,1.0527751600224957
29.5,1.0053460520846427,0.9591260587387691,1.0541052275760012
30,1.005355993320519,0.9579884516483885,1.0554094748328635
30.5,1.005345475568566,0.9568398016224634,1.0566835129230265
31,1.0053122099195542,0.9556794155850884,1.057922650369533
31.5,1.0052537205675278,0.9545064807919682,1.0591218753707394
32,1.0051673332206439,0.9533200577137276,1.0602758378235468
33,1.0048991035304022,0.9509023106341562,1.0624247746228443
34,1.0044817008987326,0.9484158404360155,1.064319208901671
35,1.0038853534630698,0.9458478003445331,1.0659023408373685
36,1.0030759475106032,0.9431825777165529,1.0671103125055517
37,1.002014654328878,0.9404015391028466,1.0678717876103767
39,0.9989555586902685,0.9344008869697727,1.0677654436643145
40,0.9968538343761999,0.9311267261097214,1.0675860207250327
41,0.9942921451033034,0.927627267137183,1.0667540272136316
42,0.9912047758711479,0.9234001932078886,1.0651721093606885
43.2,0.9867060059159467,0.9176297302578165,1.0621369616570995
44.5,0.9807109799840468,0.909087187302593,1.0572403599210247
45.8,0.9733790094268895,0.8991852529458456,1.051753105713111
47.5,0.9614760777455144,0.8842165890974282,1.0439457097136764
48.8,0.9503818425138377,0.8710729725293562,1.0357462984910655
50,0.9384564089745834,0.8575389260526082,1.026242071877669
51.5,0.9211144670624818,0.8385486497668968,1.0114910337326917
53,0.9009377702108732,0.8167593633564249,0.9933053378051429
55,0.8695489139242992,0.7842715105016752,0.963867878966369
56.5,0.8427359406439308,0.7574938834594723,0.938062791361395
58,0.813338543127438,0.7288901151226822,0.9087620648020674
60,0.7706848994751168,0.6882899854511997,0.8647935721866212
61.5,0.7366496707153949,0.6503978645332753,0.828741360727931
63,0.7014025374648837,0.6122769806421968,0.7910527548700024
64.5,0.6654564249570298,0.5746757887965731,0.7556843357803348
66,0.6293136084028147,0.5380342406358556,0.7210483756536542
67.5,0.593438225456686,0.5027016349649881,0.6874236231081151
68.8,0.5628781532644034,0.47334067828360393,0.6579095737260553
70,0.5353116468677276,0.44738564899767824,0.6306055456487584
71.5,0.5019431955806573,0.416581902114609,0.5967023539836835
73.2,0.465835990095325,0.38393750090340867,0.558985604490842
75,0.4298036071225324,0.3520007388226664,0.5203088895281947
76.5,0.40159939811607026,0.32740406212860673,0.489335850498551
78,0.37508091547608513,0.30456930904237506,0.4596752259128346
80,0.34232091309911017,0.27671436392985854,0.4223438483377422
82,0.3124339089964591,0.25161025966687595,0.3876561098984927
84,0.2852641213090018,0.22901697725152145,0.35563232642039816
86,0.2606241659227603,0.2086965698509321,0.32621338139206846
88,0.23831266341446414,0.1904217001600417,0.2992862481246601
90,0.2181263680225883,0.17398043759540577,0.27470448954654364
92,0.19986806011054123,0.15917851794333143,0.25230381238481875
94,0.18335132409159507,0.1458399536583227,0.23191330165527282
96,0.1684031294243163,0.13380662352979628,0.21336315444410078
98,0.15486491965034777,0.12293727190634623,0.19648972300511933
100,0.1425927278524599,0.11310620298180918,0.1811385732092735
102,0.13145668706959834,0.10420185377470932,0.16716612981495405
104,0.1213401903037172,0.09612535959395045,0.15444034875630955
106,0.11213887136798173,0.08878917898722943,0.1428407434492593
108,0.10375951846579652,0.08211581449250492,0.13225800112457692
110,0.09611899107593508,0.07603664587835712,0.12259335532108932
112,0.08914318253306333,0.07049088035625634,0.11375782871661008
115,0.07978333813032396,0.06305613310518557,0.1018863949100553
118,0.07157874541470692,0.05654458044510995,0.09146601715848764
120,0.06666924322353597,0.0526504921491795,0.08522474520064786
122,0.0621584001885619,0.04907407255060652,0.07948662275643077
125,0.056058911752248114,0.04424024232111217,0.07172235231262714
128,0.050663099250490486,0.03996606742037349,0.06484902027000418
130,0.04741007937640615,0.0373901461863278,0.060703153908725084
132,0.04440383841327141,0.03501022878742067,0.056870447906577935
135,0.04031027797709172,0.03177044411553215,0.05164945429479394
138,0.03665919193989959,0.028881762613877607,0.046990831081256484
140,0.03444336550297914,0.02712907119673249,0.044162629311462816
142,0.032385125394560184,0.02550133614950707,0.04153494479866992
145,0.029565110350355535,0.02327166724313701,0.03793373636831894
148,0.02703177320320462,0.02126919918512848,0.034697605259584534
150,0.02548534530494181,0.02004710119350559,0.03272167359008008
155,0.022054860054416477,0.017336907638486533,0.02833695557520949
160,0.0191557124939992,0.015047514123378286,0.02462962555849225
165,0.016694015713690304,0.013104473432061657,0.02148020541083807
170,0.014594527754765305,0.011448147666393252,0.018792879804141085
175,0.012796562836638064,0.010030452185157643,0.01649032976228762
180,0.011250878179279753,0.008812379657913661,0.014509790230892368
185,0.009917286369188412,0.007762102994835928,0.012800021438937085
190,0.008762811276904831,0.006853511226363572,0.011318966807025188
195,0.007760254133876687,0.006065071669960549,0.010031930041544977
200,0.006887071296855433,0.00537893980839511,0.008910147420182883
205,0.00612449048779087,0.0047802585528453284,0.007929662827491364
210,0.005456810695494949,0.0042566032749960115,0.007070436183841372
215,0.004870844419430279,0.003797539760599721,0.006315632900146232
220,0.004355470901492686,0.0033942701773272133,0.00565105457049538
225,0.0039012764011946742,0.003039348046500863,0.005064680487395333
230,0.0035002631152008055,0.0027264476175598963,0.004546296590409528
235,0.0031456125192748,0.002450176362972832,0.004087193758055279
240,0.0028314920766117483,0.0022059218254628287,0.003679921373109474
245,0.0025528966704803516,0.0019897259658100165,0.0033180851592443422
250,0.002305517970438184,0.0017981816291301165,0.002996180641008284
255,0.0020856363693063915,0.00162834688129855,0.002709455395480443
260,0.001890031235582289,0.0014776738470734178,0.0024537946727632783
270,0.0015608259898626127,0.0012252453412106774,0.002021839731836585
275,0.0014226649476066573,0.0011198770145485141,0.001839721482393807
280,0.0012995616166785928,0.0010263678762695363,0.0016768963225044725
285,0.0011898818374574225,0.0009434200176571097,0.0015312807885308358
290,0.0010921868900723025,0.0008698890867725023,0.0014010425029613396
295,0.0010052065281545765,0.0008047631112293522,0.0012845657764383209
300,0.0009278160415285029,0.0007471446064603379,0.001180422271198733
305,0.0008590167381079869,0.0006962354896804051,0.0010873459263371157
310,0.0007979193483157701,0.000651324397512393,0.001004211493253452
315,0.0007437299435297421,0.0006117760609229328,0.0009300161502210651
320,0.0006957380265707906,0.0005770224294007093,0.0008638637625130442
330,0.0006158632506499092,0.0005199199264882626,0.0007525580397363637
340,0.0005539369549830871,0.0004765635384378194,0.0006647957051898871
350,0.0005064413624724292,0.00044420615899094275,0.0005961104534121789
360,0.00047054890582281725,0.0004199007065468496,0.0005428627813681174
370,0.00044400848084719265,0.0004020835085349689,0.0005020944969166542
390,0.0004122992641567881,0.0003839263215302679,0.0004518549804535595
400,0.0004046947846561767,0.0003793357645639642,0.0004411038239411514
410,0.000401417594588666,0.00037797165588601103,0.00043473440872048344
420,0.0004018274698889079,0.0003802217838441162,0.000431871943588393
432,0.000406473072865322,0.0003872209903721847,0.00043251661150346183
445,0.0004158455338244018,0.00039916404042156874,0.0004376428761613123
458,0.0004290100833483161,0.0004140095689666477,0.00044680257504071946
475,0.00045092023493219246,0.00043740417040475884,0.000464182525055588
488,0.00047059783579221057,0.00045723461288778674,0.00048224397569785577
500,0.0004905792198930507,0.0004770520483820015,0.0005021045417824302
515,0.0005175368596238969,0.0005034887699705044,0.0005305873278588245
530,0.0005462247676089757,0.0005304012416111607,0.0005603391737776243
550,0.0005864425129461668,0.0005690234908763577,0.0006013888513479772
565,0.0006176377157840308,0.0005994989877364951,0.0006328522611654623
580,0.0006494092143432441,0.000630883567410512,0.0006646478865434199
600,0.0006922872434312644,0.0006736639595602038,0.000707494298759898
615,0.000724603422672499,0.0007061581083022498,0.0007402440702663111
630,0.0007568973346155089,0.0007385785665509856,0.0007728519215828122
645,0.0007890560494031193,0.0007704178437868216,0.00080522595017044
660,0.0008209882050729774,0.0008021409314900792,0.0008372921842462963
675,0.0008526202267675269,0.0008336546267872538,0.0008689914288003645
688,0.0008797460256928231,0.0008607386495650394,0.0008961306600271153
700,0.0009045189089136709,0.0008855149256494153,0.0009208849602369965
715,0.0009350946778229193,0.0009161423414074958,0.0009514024556055546
732,0.0009691871053300476,0.0009503455529754332,0.000985390172488884
750,0.0010046007484201455,0.0009859245922444414,0.0010206573204904702
765,0.0010335544595738543,0.0010150459388388441,0.001049466864026653
780,0.0010619893670380759,0.0010436698696865826,0.0010777417551950106
800,0.0010990841671916964,0.001081042445928229,0.0011146041424712591
820,0.0011352374961334974,0.0011174953054502717,0.0011505089976773075
840,0.001170450318989161,0.0011530227286244688,0.0011854622882397092
860,0.0012047300794989079,0.0011876268993595437,0.0012195433577993043
880,0.0012380892608848128,0.0012213161629386592,0.0012537034468365928
900,0.0012705442369363084,0.0012533845481755633,0.0012869400227284728
920,0.0013021143511539202,0.0012842424659976236,0.0013192718636959272
940,0.0013328211762385776,0.001314256315185721,0.0013507202708567178
960,0.0013626879170677828,0.0013434492158955085,0.0013813084050302014
980,0.0013917389284970106,0.001371845301318986,0.0014110607523761007
1000,0.0014199993255508768,0.0013994693608154034,0.0014400026933705549
1020,0.0014474946683265906,0.0014263465509098837,0.0014681601550833743
1040,0.0014742507075911648,0.001452502161585806,0.001495559330913167
1060,0.001500293179885847,0.0014779614278087572,0.001522226455175887
1080,0.001525647643157339,0.0015027493781806344,0.0015481876224599314
1100,0.001550339345665274,0.001526890714163371,0.0015734686436302276
1120,0.0015743931222805126,0.0015504097145308988,0.001598094931913645
1150,0.0016093307697991701,0.0015845732071668014,0.001633861116308527
1180,0.0016429674686294028,0.0016174676987404462,0.0016682918335679787
1200,0.0016647071533064566,0.001638729418746753,0.0016905426522688702
1220,0.0016859246354007029,0.0016594817879376194,0.0017122573609696218
1250,0.0017168179204328715,0.0016897003731683787,0.0017438716161381185
1280,0.0017466524565083992,0.0017188862812892848,0.0017743988786639126
1300,0.0017659862891172826,0.0017378013831587991,0.001794179693905231
1320,0.001784897078518805,0.0017563038578926296,0.0018135261729147064
1350,0.0018125088106120605,0.001783321690607835,0.0018417712966656413
1380,0.001839265903549441,0.0018095059185308687,0.0018691389609287235
1400,0.0018566560129213477,0.001826525140720596,0.0018869241552632106
1420,0.001873705656514134,0.0018432122739789494,0.001904359790335437
1450,0.001898673684995615,0.0018676514570470503,0.001929890605264677
1480,0.0019229556558862087,0.001891421462393991,0.001954717028291136
1500,0.0019387845035814077,0.001906917837502751,0.0019708992418294765
1550,0.001977189811562276,0.0019445206911214415,0.0020101567399671335
1600,0.0020140714267539426,0.0019806374009944945,0.002047849711204422
1650,0.0020495934064094414,0.0020154280424559425,0.00208414651725599
1700,0.002083903723304061,0.0020490370145383294,0.002119198993908234
1750,0.00211713582945006,0.0020815945618944663,0.0021531440597306983
1800,0.0021494100966735854,0.0021132181769463313,0.0021861051981575887
1850,0.0021808351317557048,0.0021440138801209277,0.002218193810400736
1900,0.0022115089691323564,0.002174077381108199,0.002249510442212289
1950,0.0022415201473053765,0.0022034951271119566,0.002280145890822132
2000,0.0022709486768484354,0.002232345245734438,0.002310182200183909
