Frequency,Nominal,Min,Max
3.9,0.0012172296378997354,-0.007790563910506789,0.009912856604585072
4,0.0012801727445615964,-0.008193468994479026,0.010426070894953607
4.1,0.0013446808329924708,-0.008606396966890832,0.010952108297141785
4.2,0.001410751780702045,-0.009029334603484032,0.011490956085863147
4.32,0.0014920968288673652,-0.009550053434385,0.012154464760265982
4.45,0.0015827522737820458,-0.010130381324642057,0.01289403465028539
4.58,0.0016760357185670051,-0.010727543071492597,0.01365517460544408
4.75,0.0018019784532022638,-0.011533793260247031,0.014683006043091586
4.88,0.001901306509709571,-0.012169677641220636,0.01549380260286861
5,0.001995310929437274,-0.012771492094490064,0.01626128143151148
5.15,0.002115937435114805,-0.013543756585109236,0.017246307166544912
5.3,0.0022400233777957177,-0.014338187435667893,0.01825981279390786
5.5,0.002410836790586643,-0.015431810680643209,0.019655359629013484
5.65,0.0025429587206912594,-0.016277738333127036,0.020735099966237427
5.8,0.0026785085973510606,-0.0171456359886378,0.021843129167662415
6,0.0028645568218164863,-0.01833690057146862,0.023364401056916007
6.15,0.003008065949998938,-0.01925581674040394,0.024538198477153213
6.3,0.003154968742930476,-0.02019648936550112,0.02574007592783676
6.45,0.0033052543721605937,-0.021158851072028688,0.026969967277292964
6.6,0.0034589117579351732,-0.02214283297147253,0.028227804783343607
6.75,0.0036159295689120476,-0.023148364670027247,0.029513519090991654
6.88,0.0037547209356031553,-0.024037201339983865,0.030650299245343786
7,0.0038850619566227415,-0.024871943344986647,0.031718131227098365
7.15,0.00405098358490978,-0.025934585673595432,0.033077832310236546
7.32,0.004243036968056242,-0.027164633399586226,0.03465219855798421
7.5,0.00445101072318314,-0.02849670211091687,0.03635770199705061
7.65,0.004627938962121634,-0.02962997116550832,0.037809129998977994
7.8,0.00480814120563387,-0.030784255878438808,0.039287903921371395
8,0.005053480608270632,-0.03235585108091879,0.041301997985760196
8.2,0.005304584236797845,-0.033964462814546056,0.04336436061801349
8.4,0.005561418834313286,-0.03560988812895081,0.04547478681988674
8.6,0.0058239502996111706,-0.03729191969356237,0.04763306635763673
8.8,0.006092143675979574,-0.039010345849191955,0.04983898373869601
9,0.0063659631386443595,-0.040764950661532684,0.052092318186414896
9.2,0.006645371980680726,-0.04255551397654107,0.054392843612835785
9.4,0.006930332597350371,-0.044381811477865914,0.05674032858939389
9.6,0.007220806468739463,-0.046243614746214634,0.059134536315413946
9.8,0.007516754140697887,-0.048140691320897364,0.06157522458427685
10,0.007818135203860602,-0.05007280476339389,0.06406214574718978
10.2,0.008124908270769044,-0.05203971472318214,0.06659504667441951
10.4,0.00843703095092745,-0.054041177005708034,0.06917366871388485
10.6,0.008754459823735076,-0.05607694364269629,0.07179774764691169
10.8,0.009077150409177458,-0.05814676296474727,0.07446701364115316
11,0.009405057136177317,-0.06025037967631929,0.07718119120041941
11.2,0.00973813330847104,-0.06238753493317894,0.07993999911136208
11.5,0.010247335260076816,-0.0656555778528641,0.08416126350927616
11.8,0.01076789386907114,-0.0689975919985257,0.08848130584961082
12,0.011121157017785033,-0.07126624487081612,0.09141570663474399
12.2,0.011479337875284887,-0.07356709172383889,0.09439324384124946
12.5,0.012025710661754271,-0.07707811598410125,0.09893973568123984
12.8,0.01258283629904942,-0.08065999792513687,0.10358147463227715
13,0.01296013014909771,-0.08308680818853686,0.10672832687056667
13.2,0.013342055131435942,-0.08554439226284113,0.10991666859635306
13.5,0.013923489582090168,-0.08928782982117052,0.11477620943135175
13.8,0.014514986641087765,-0.09309885525355881,0.11972711055512979
14,0.014914796783720801,-0.09567659089110372,0.12307785635569474
14.2,0.015318908954734478,-0.09828361732860862,0.12646828057551646
14.5,0.01593298592989927,-0.10224841418133358,0.13162747391422483
14.8,0.01655632892877901,-0.10627740372571295,0.13687375625647735
15,0.01697690915624205,-0.10899854716241625,0.14041898981483478
15.5,0.018045327054198958,-0.11592217476021051,0.1494460398833118
16,0.01913689796757441,-0.12301443302154311,0.1587019531378342
16.5,0.020250165997329574,-0.13027042372306502,0.16817973512215983
17,0.021383547618707817,-0.13768522997011517,0.17787204935566706
17.5,0.022535316811717245,-0.14525393283379098,0.1877711967514745
18,0.023703588602277365,-0.1529716290763375,0.1978690928467627
18.5,0.02488630090806807,-0.1608334500162611,0.20815724268297034
19,0.02608119457988115,-0.16883458158621661,0.2186267131663131
19.5,0.027285791525973366,-0.1769702856386623,0.22926810273314516
20,0.028497370803964306,-0.18523592255544882,0.24007150813786565
20.5,0.029712942561616117,-0.1936269752196525,0.25102648817581247
21,0.030929219705589678,-0.2021390744091696,0.2621220241479403
21.5,0.03214258717427958,-0.21076802567358058,0.27334647686967717
22,0.03334906868905961,-0.21950983775706426,0.28468754002236984
22.5,0.03454429085630399,-0.22836075263186176,0.2961321896434029
23,0.03572344449134779,-0.23731727720801665,0.30766662954895463
23.5,0.0368812430346621,-0.24637621678662242,0.31927623248419573
24,0.03801187793062411,-0.2555347103246046,0.33094547679664293
24.5,0.03910897083986373,-0.2647902675802577,0.34265787843322404
25,0.040165522557729455,-0.274140808209125,0.35439591806732995
25.5,0.04117385851442098,-0.2835847028801771,0.36614096317185085
26,0.042125570736079976,-0.29312081648223454,0.3778731848669114
27,0.04382145113904311,-0.31246790555500437,0.4012133240374287
27.5,0.04454456220804573,-0.32227950139604655,0.4127747775224904
28,0.04516879273967177,-0.33218465903803557,0.42423027458726337
28.5,0.04568106570235735,-0.3421854404733622,0.43555256491952965
29,0.04606714229345893,-0.3522847087919827,0.446712586331719
29.5,0.04631153646936761,-0.36248618783200764,0.457679342283942
30,0.046397425353685746,-0.37279452439173244,0.4684197738764681
30.5,0.04630655554121674,-0.38321535303538234,0.47889862651429255
31,0.046019145348853,-0.3937553635139984,0.4890783115313249
31.5,0.045513783103186156,-0.40442237080942883,0.4989187631601578
32,0.04476732159930663,-0.41522538779454604,0.5083772913444916
33,0.04244917583225808,-0.437281945830728,0.5259637886065126
34,0.038840588313678426,-0.4600240209857582,0.5414380079315043
35,0.03368235973878561,-0.4835748362004944,0.5543483193582641
36,0.026676334108622198,-0.5080846008260407,0.564186338557076
37,0.017481461515336298,-0.5337333752183072,0.5703822584223954
39,-0.009076642785644759,-0.5893351596443217,0.5695172315663268
40,-0.027370325792822482,-0.6198241525585024,0.5680575675449271
41,-0.04971982986432784,-0.652529879569107,0.5612858216906207
42,-0.0767322817623583,-0.6922007783029009,0.5483957255722169
43.2,-0.11624456622190196,-0.7466504837018095,0.5236104452044666
44.5,-0.16917924673132584,-0.8278892629841182,0.4834746774723291
45.8,-0.23436046796008547,-0.9230164869407229,0.43827606231075
47.5,-0.34123033734754304,-1.0688268280534996,0.3735582762971731
48.8,-0.44203739362495187,-1.1989092250053668,0.3050677981751042
50,-0.5517179085132149,-1.334923140312501,0.2249963009064852
51.5,-0.7137279319027129,-1.5294347204924306,0.09924074722447326
53,-0.9061041135459619,-1.7581175611528974,-0.0583446143730887
55,-1.2141196602312971,-2.110671218264083,-0.3196498482562119
56.5,-1.486169681549291,-2.412417392236559,-0.5553618032277304
58,-1.7945729304649285,-2.7467587887272615,-0.8309962072868513
60,-2.2624630068343494,-3.2445709868106527,-1.261750941091582
61.5,-2.6547800188720654,-3.7364178668202728,-1.631619717933299
63,-3.0806533460791004,-4.2610413625836285,-2.0358910535622043
64.5,-3.5376075497003385,-4.811541987847731,-2.4331915994362148
66,-4.022657537611884,-5.3838016968574545,-2.8407119434849033
67.5,-4.532489653466534,-5.973794045781929,-3.2555109508359976
68.8,-4.9917121417662855,-6.496523424480434,-3.6366758763686446
70,-5.427866149878185,-6.9863590217336675,-4.004844286286096
71.5,-5.986908575097491,-7.605992027299154,-4.484844977319221
73.2,-6.635339225601885,-8.314789326289244,-5.051987526375042
75,-7.334598880342523,-9.069128499399287,-5.674775081538753
76.5,-7.924138934943277,-9.698318731279677,-6.20785930207754
78,-8.517500653230883,-10.3262772389808,-6.7509780363394025
80,-9.311331361904761,-11.159365930764993,-7.486676543296897
82,-10.104836750000102,-11.985433081239192,-8.231067333371522
84,-10.895056953635489,-12.802646435878364,-8.979975384412782
86,-11.679706351108845,-13.609693779309469,-9.72996456024106
88,-12.457057591602013,-14.405671232186858,-10.478264761143759
90,-13.225836638492087,-15.18999162308221,-11.222684855319578
92,-13.985132054209704,-15.962310863647925,-11.96152374230958
94,-14.734318987741212,-16.72246964706406,-12.693486823720333
96,-15.4729968459098,-17.470447762568092,-13.417611529833852
98,-16.200938969244937,-18.20632857022249,-14.133203191662751
100,-16.91805245378986,-18.93027153599141,-14.839781148535122
102,-17.624346337434663,-19.642491095400597,-15.537034241834093
104,-18.3199065653259,-20.343240450832084,-16.22478452651147
106,-19.004876384248302,-21.032799196251162,-16.90295796165027
108,-19.679441048451128,-21.711463901356282,-17.571560905455833
110,-20.34381592932565,-22.379540978859147,-18.23066136724745
112,-20.99823730136769,-23.037341310425234,-18.880374117341397
115,-21.961755935792873,-24.005453314506447,-19.837676086302423
118,-22.904318358161643,-24.952180280048925,-20.77480463274116
120,-23.521489492271293,-25.57195129805081,-21.388685770445615
122,-24.1300034356939,-26.182957987370095,-21.994119100306552
125,-25.027106745350164,-27.08365005792175,-22.886909502208077
128,-25.906164926434215,-27.966171666599507,-23.76193161582163
130,-26.48258635124317,-28.544856737144876,-24.335774880447985
132,-27.051589728495703,-29.116101023322788,-24.902267025394774
135,-27.891684139394556,-29.959534283515698,-25.738685253656513
138,-28.716342244055625,-30.787526118085506,-26.559737479276247
140,-29.25788839409934,-31.33130149376094,-27.098901558173928
142,-29.793088340545054,-31.868741279826285,-27.631727247804893
145,-30.584409913570774,-32.663450032111136,-28.419487567654866
148,-31.36250929904167,-33.44497723159001,-29.19400996149495
150,-31.874189554226785,-33.958968347839715,-29.70328983818721
155,-33.129913872458715,-35.220567289801025,-30.952936213676317
160,-34.354033797181074,-36.45070480760971,-32.17084381284581
165,-35.548783640864954,-37.65160850639563,-33.359231397655456
170,-36.71619906431437,-38.82529554742865,-34.52013327801528
175,-37.8581333281974,-39.9735897601457,-35.65541319091812
180,-38.97627155366494,-41.098136013936326,-36.766777322884764
185,-40.07214292003951,-42.20041197865507,-37.85578605891095
190,-41.147130830569,-43.28173742987774,-38.92386427300116
195,-42.202481123462256,-44.34328125560363,-39.972310101792125
200,-43.239308421110735,-45.38606631097258,-41.00230220828091
205,-44.25860071084408,-46.410972255886264,-42.01490557337827
210,-45.261222244945415,-47.4187365031943,-43.01107586439544
215,-46.24791484178984,-48.409953406743114,-43.99166243101448
220,-47.21929766794211,-49.385071832869265,-44.95740997667311
225,-48.17586558611893,-50.344391289484975,-45.90895895054797
230,-49.11798616908087,-51.28805683739556,-46.84684470536398
235,-50.045895507775896,-52.21605308242968,-47.77149547155901
240,-50.959692986513545,-53.128197647270085,-48.6832292112551
245,-51.859335261677344,-54.02413465001284,-49.5822494384737
250,-52.7446297661656,-54.90332887113165,-50.4686401276749
255,-53.61522817101626,-55.76506146575934,-51.342359883665964
260,-54.4706203680808,-56.60842826127657,-52.20323561471208
270,-56.13291023926277,-58.23553880287824,-53.88506546488658
275,-56.93794737482811,-59.01659338294793,-54.70495840736423
280,-57.724062485643216,-59.773938983348465,-55.50987575391413
285,-58.489923291278586,-60.50589826106875,-56.298903322175626
290,-59.234060815365446,-61.2107223516134,-57.07097378933686
295,-59.95489399227161,-61.886638780869994,-57.82487305391116
300,-60.65076245986137,-62.53190668631909,-58.559252103952055
305,-61.319967475479594,-63.144876858048974,-59.27264536483815
310,-61.9608200765332,-63.7240530716618,-59.96349624819998
315,-62.57169465805596,-64.26815042321122,-60.63019019255593
320,-63.151085179978416,-64.77614610168129,-61.271094869267316
330,-64.21031420090725,-65.68127074892188,-62.46920000464353
340,-65.13079321304866,-66.43758376606091,-63.54623589814791
350,-65.90941663011617,-67.04830848363757,-64.49346524603347
360,-66.54790464238827,-67.53706789189755,-65.30619865042053
370,-67.05217469005166,-67.91367478261411,-65.9842907715502
390,-67.69574880593409,-68.31504224301352,-66.90001852918748
400,-67.85744784741146,-68.41952418361659,-67.10918354588989
410,-67.92807191622802,-68.45081533414651,-67.23551969095948
420,-67.9192075432248,-68.39926009910754,-67.29290017654125
432,-67.81936438606468,-68.24082217212155,-67.27994416186775
445,-67.62135916945212,-67.97697180009368,-67.17760272946676
458,-67.35065000287571,-67.65979241906093,-66.99768665191851
475,-66.91800550800865,-67.18234161046055,-66.66622426660604
488,-66.54700148819194,-66.79721801447728,-66.33466377912563
500,-66.1858170344114,-66.42868470045822,-65.98411700401569
515,-65.72117427544225,-65.960204233855,-65.50486253172912
530,-65.25257222848673,-65.50790935932642,-65.03098029165349
550,-64.63549107877479,-64.897396086953,-64.41689254376332
565,-64.18532383710043,-64.44423091755203,-63.97395327672466
580,-63.749631070897756,-64.00101568982232,-63.54816743772272
600,-63.19427341857157,-63.431133728107774,-63.00554110977217
615,-62.79799237803435,-63.021960996653696,-62.612501256914015
630,-62.419260482223535,-62.632065993373104,-62.23807417855311
645,-62.05784292486301,-62.26547333988204,-61.88164474933323
660,-61.713261644663966,-61.914986440017366,-61.54245925440925
675,-61.38488737538395,-61.580276702988705,-61.21969014290383
688,-61.11285372881136,-61.30257391126966,-60.952573271227514
700,-60.8716469961822,-61.05608228467744,-60.71589239616705
715,-60.58288829646639,-60.760740891594466,-60.43271463968526
732,-60.271847452416985,-60.4423690634124,-60.127835467062084
750,-59.960130052603276,-60.123126009989136,-59.822400903621286
765,-59.713332695793675,-59.870286041069775,-59.580625386463666
780,-59.47759663043576,-59.628737085042985,-59.34970581693232
800,-59.179380965956774,-59.32314507245075,-59.05758694407715
820,-58.89826545716146,-59.03508585289276,-58.7821996107225
840,-58.63294031336282,-58.76324263435062,-58.522245143625625
860,-58.382204922618115,-58.506399486741884,-58.27605509653754
880,-58.14496086863986,-58.2634379079062,-58.036103602379214
900,-57.92020418766966,-58.03831327239947,-57.80883385453119
920,-57.70701749055728,-57.827059467653676,-57.59331399450338
940,-57.504562313786245,-57.62639854917387,-57.38869164875279
960,-57.312071898924955,-57.43557491618606,-57.19418691141876
980,-57.12884449776957,-57.25389719782569,-57.00908575108295
1000,-56.95423723782622,-57.08073210579218,-56.83273391205506
1020,-56.787660545386764,-56.91549887449777,-56.66453133151714
1040,-56.628573102064806,-56.75766425256896,-56.503927064527815
1060,-56.47647729935211,-56.60673800229347,-56.35041469220907
1080,-56.330915150719036,-56.46226886130137,-56.20352817976269
1100,-56.19146461956792,-56.32384092140322,-56.062838147281546
1120,-56.05773632238762,-56.19107038179568,-55.92794851568861
1150,-55.867093701797884,-56.00175383273472,-55.73569725453363
1180,-55.68742071346078,-55.82328767097634,-55.55455952214156
1200,-55.57324308566336,-55.709854993827804,-55.43947735083222
1220,-55.46323686422738,-55.60055018829641,-55.328619161767136
1250,-55.30551524231911,-55.443806000226765,-55.16970981989384
1280,-55.1558700198152,-55.295057091531916,-55.01897491296761
1300,-55.06025345099936,-55.19999722894694,-54.9226812574624
1320,-54.96773642599408,-55.1080068939984,-54.8295234455043
1350,-54.83439747289495,-54.97540616112318,-54.69528599269331
1380,-54.70710960124924,-54.848799841266576,-54.5671681969163
1400,-54.625371031594554,-54.76748691359553,-54.48491111819209
1420,-54.54597264241005,-54.68849292547205,-54.405019940503756
1450,-54.43099337490818,-54.57408338015629,-54.2893461605326
1480,-54.320614612952454,-54.46423374464964,-54.17832207427769
1500,-54.249409203742935,-54.39336037597434,-54.106711551305935
1550,-54.0790327224053,-54.22374862562425,-53.93540155160161
1600,-53.91850263498226,-54.06390048580607,-53.774038375697316
1650,-53.76664569465562,-53.912654060088975,-53.621435060626375
1700,-53.62244698771549,-53.7690039255383,-53.47656521785001
1750,-53.485025559609056,-53.63207710725537,-53.3385382400089
1800,-53.35361430784678,-53.50111324728914,-53.20657886163234
1850,-53.22754330534625,-53.37544814786506,-53.08001021774675
1900,-53.10622589878566,-53.254500045930804,-52.958239730033625
1950,-52.989147064812975,-53.13775811134744,-52.84074729199094
2000,-52.875853613389395,-53.024772765277575,-52.72707533363742
