Frequency,Nominal,Min,Max
0.225,14735908.830096629,12134694.061361382,18582168.98357613
0.23,14402255.65743351,11854018.476135626,18168294.633841783
0.235,14082556.526823027,11585006.719433323,17771837.208659675
0.24,13775941.802203044,11326934.484685855,17391709.278252166
0.245,13481612.870248264,11079136.631429508,17026912.20093866
0.25,13198835.037022458,10841001.26588871,16676527.24401752
0.255,12926931.260314776,10611964.51798114,16339707.749246668
0.26,12665276.605165793,10391505.92099829,16015672.20230465
0.27,12170446.501475438,9974434.201677047,15403116.421388078
0.275,11936240.130096298,9776962.506064372,15113306.892291177
0.28,11710213.664365824,9586345.673233496,14833693.508046173
0.285,11491938.894873071,9402227.07947668,14563740.711118676
0.29,11281017.162571728,9224274.707853146,14302949.89196928
0.295,11077076.85359953,9052179.06072423,14050856.257585764
0.3,10879771.144618712,8885651.28106938,13807026.013160586
0.305,10688775.969929773,8724421.458626399,13571053.820978973
0.31,10503788.185320169,8568237.099989807,13342560.505219972
0.315,10324523.906789526,8416861.744451093,13121190.975346576
0.32,10150717.00502405,8270073.709641495,12906612.344177349
0.33,9818491.51291348,7989440.03677947,12496597.15201743
0.34,9505288.843000233,7724817.428282002,12110234.74070947
0.35,9209494.584330318,7474860.685322877,11745505.648655921
0.36,8929673.806578767,7238373.927558964,11400614.921047332
0.37,8664546.784656204,7014290.373610735,11073961.763668185
0.39,8173911.627864656,6599611.720334685,10469786.389121816
0.4,7946451.26820064,6407387.980367186,10189822.363894548
0.41,7729752.963756112,6224287.475716429,9923178.223188613
0.42,7523061.660105063,6049679.617283944,9668909.742355745
0.432,7287281.529616031,5850558.446330834,9378923.306899678
0.445,7045771.082124983,5646685.604695957,9081951.92379396
0.458,6817560.903992078,5454145.358819461,8801380.339308884
0.475,6537427.163001215,5217975.847553167,8457008.182495104
0.488,6335996.583660586,5048308.565745249,8209392.833326127
0.5,6159095.286009447,4899428.05771571,7991920.269607512
0.515,5949246.446932159,4722997.622110356,7733911.553716629
0.53,5750967.114680917,4556502.389919668,7490072.568123601
0.55,5503010.96111973,4348630.254251051,7185025.391270774
0.565,5328305.999106733,4202429.889572949,6969985.814050582
0.58,5162454.312917195,4063869.5494859773,6765732.9321493395
0.6,4953989.848876937,3890072.6668392406,6508807.088593274
0.615,4806405.616554772,3767308.7964126263,6326753.501191296
0.63,4665764.386106273,3650560.026813036,6153114.987312569
0.645,4531604.817941419,3539432.004109541,5987320.332090964
0.66,4403506.806308306,3433564.8088234267,5828850.082311016
0.675,4281086.888788299,3332629.163866102,5677230.779314479
0.688,4179310.6509877215,3248906.6625340343,5551033.792838626
0.7,4088732.1705733477,3174553.19263267,5438598.326210572
0.715,3979816.63642113,3085357.58221889,5303231.561642913
0.732,3861836.8122355808,2989016.956921846,5156367.728035793
0.75,3742840.380707745,2892162.723056479,5007965.917653236
0.765,3648044.381653903,2815250.832082314,4889527.073197637
0.78,3556989.2085775803,2741593.0382245462,4775561.840900795
0.8,3441059.531084094,2648145.7476304453,4630151.0880721845
0.82,3330995.0796932722,2559796.3940975987,4491738.952498192
0.84,3226402.4057383374,2476199.4468572508,4359848.904098321
0.86,3126923.080994529,2397039.3907383145,4234048.030996718
0.88,3032229.7645807746,2322027.44659275,4113942.072313019
0.9,2942022.7969790646,2250898.724100433,3999171.1163793984
0.92,2856027.2402925156,2183409.740724803,3889405.8629099927
0.94,2773990.2976962673,2119336.25200722,3784344.364920855
0.96,2695679.0562725924,2058471.3476430585,3683709.180233679
0.98,2620878.5065922495,2000623.7753187167,3587244.873855761
1,2549389.7999208393,1945616.4604516702,3494715.8219261514
1.02,2481028.710115821,1893285.1950363985,3405904.275658514
1.04,2415624.272392491,1843477.4729709595,3320608.6501127854
1.06,2353017.575378173,1796051.4526916058,3238642.007943067
1.08,2293060.6864043735,1750875.0308105166,3159830.7126991106
1.1,2235615.6929363213,1707825.0128422542,3084013.2299642386
1.12,2180553.8455114327,1666786.3691041816,3011039.057722763
1.15,2102168.322013828,1608766.3994154588,2906604.3670813437
1.18,2028501.538639624,1554697.2612575698,2807817.4699826827
1.2,1981842.7361318253,1520695.0290151364,2744900.7010112978
1.22,1937036.4436347564,1488230.234696842,2684209.987179832
1.25,1873110.545360875,1442246.3339688005,2597127.857092197
1.28,1812883.295903414,1399303.0551490474,2514511.0695267436
1.3,1774661.9438652631,1372252.44635757,2461769.970550064
1.32,1737903.5728849273,1346392.2745865027,2410804.65373749
1.35,1685367.4168738516,1309708.2436623052,2337522.902773212
1.38,1635771.682042226,1275390.9359919988,2267831.756927745
1.4,1604247.3984932955,1253744.3271855598,2223257.475611011
1.42,1573893.2288495502,1233028.628814231,2180121.5476301042
1.45,1530447.9821758424,1203605.3243421554,2117990.2837498803
1.48,1489367.1958351484,1176040.208725929,2058786.4370120359
1.5,1463221.2951747777,1158632.3207030413,2020860.301880612
1.55,1401909.5075696772,1118248.5236090454,1931109.9684333426
1.6,1345931.7030783435,1081947.4739598474,1848069.7610424298
1.65,1294773.024523575,1049283.2812054164,1771145.5205927836
1.7,1247975.642770654,1019862.4751238868,1699807.9577507528
1.75,1205131.1986926582,993337.1578081154,1633583.9068562496
1.8,1165874.4432470542,969399.2080510657,1572048.989834481
1.85,1129877.8580195059,947775.3433596529,1514821.4264246514
1.9,1096847.0825079773,928222.8859457007,1461556.782941249
1.95,1066517.00846107,907235.8648226468,1411943.4945830952
2,1038648.4282422172,887442.1088958487,1365699.0293148337
2.05,1013025.1452673322,869592.993249368,1322566.5869928205
2.1,989451.4713711758,853492.9467926426,1282312.247478114
2.15,967750.0494628887,838966.3563458471,1244722.4972964213
2.2,947759.9507518033,825855.4989933006,1209602.0769559992
2.25,929335.004700009,814018.7060463468,1176772.1010616578
2.3,912342.3270987283,801824.6731935594,1146068.4114273705
2.35,896661.0175879814,786633.0769908016,1117340.1299186065
2.4,882181.0027910951,772942.6469450993,1090448.3830750913
2.45,868802.0052140689,760616.5688649304,1065265.1749267504
2.5,856432.6213228448,749529.7184959598,1041672.3880145067
2.55,844989.4948876906,739567.7390653201,1019560.8956145099
2.6,834396.5738787614,730626.1960871727,998829.7706573674
2.7,815489.7094050319,715431.6720217351,961141.7458756504
2.75,807054.4764287036,709012.6944743524,944017.987924911
2.8,799225.8290189689,703280.8614047681,929220.0419865437
2.85,791955.3955690392,698170.7054792157,919068.016720968
2.9,785198.9393870839,693622.7508325444,909431.8010305447
2.95,778915.9896898451,689583.0056665001,900278.5241173644
3,773069.5064677759,686002.490552939,891577.7827958304
3.05,767625.5759807907,682836.8008386313,883301.43073623
3.1,762553.1339928507,680045.7016174544,875423.3878095659
3.15,757823.7141542436,677592.7537443854,867919.4674095842
3.2,753411.219201489,675444.9693436447,860767.2198763785
3.3,745443.2306432906,671948.3226479649,847435.7896686695
3.4,738480.3215451591,669349.4986982761,835279.1517180349
3.5,732380.0450026016,667479.7874634191,824167.2949742847
3.6,727021.9789361224,666201.2512451387,813987.1448191135
3.7,722304.1023804015,663599.2367525614,804640.0635317503
3.9,714455.3319870544,654483.8187416239,788110.5279523392
4,711187.8438917423,650883.1543059568,780785.7783338206
4.1,708283.5693977447,647802.3042072103,774006.7777832538
4.2,705696.4384371501,645168.6591289936,767721.594926999
4.32,702955.1870387958,642511.8358783021,760766.7719205313
4.45,700369.7336353889,640155.3662769424,753879.4768084337
4.58,698124.1732414617,638249.3490267373,749405.8020652927
4.75,695616.7628227721,636308.791186448,746304.8256007647
4.88,693974.83481678,635167.7723920583,744198.503377931
5,692638.4242005607,634329.9130512895,742431.0354368392
5.15,691175.1493973077,633522.9307407816,740431.1926173548
5.3,689908.3331773467,632934.7848804053,738635.1049028537
5.5,688473.4699800297,632419.3962665304,736512.222052659
5.65,687556.555527173,632191.7824206632,735095.7721164321
5.8,686754.0490454165,632071.2629227767,733809.6418059728
6,685834.1398634195,632041.5861338382,732271.234586122
6.15,685239.4769739162,632096.2132532356,731233.0294566841
6.3,684714.1445845743,632202.0416023298,730281.6978343914
6.45,684248.8864848838,632348.4471903917,729407.8383679434
6.6,683835.8377062791,632526.7333019172,728603.2762338727
6.75,683468.2929933341,632729.7747966477,727860.8783405058
6.88,683182.1073812261,632921.2258392287,727262.9036233536
7,682941.6348375865,633107.8087201485,726745.0772403626
7.15,682669.5501926359,633351.0838219577,726139.9353255014
7.32,682394.9975761928,633636.2985631959,725505.5086853711
7.5,682138.3717428389,633945.0224638411,724887.2467369928
7.65,681947.8718245312,634204.8869714963,724409.8764257133
7.8,681776.0387965556,634465.2305548086,723963.7003330714
8,681572.4054921888,634810.7007399274,723412.7424543893
8.2,681394.058744616,635151.9337850083,722906.9398461204
8.4,681237.4501776271,635486.9971184655,722441.4592486059
8.6,681099.5900375288,635814.4862379472,722012.0974518015
8.8,680977.9498125087,636133.4079934176,721615.1855556737
9,680870.3834187443,636443.0893397364,721247.5096953043
9.2,680775.0631223522,636743.1058243647,720906.2450928448
9.4,680690.4272140412,637033.2254241458,720588.900950936
9.6,680615.1371014038,637313.3643616288,720293.2742084246
9.8,680548.0419819091,637583.5523014128,720017.4105741541
10,680488.1496445442,637843.9049130145,719759.5715644371
10.2,680434.6022469576,638094.6022347469,719518.2065141709
10.4,680386.6561482401,638335.8716170161,719291.9287252033
10.6,680343.6650603832,638567.974288584,719079.4950698271
10.8,680305.0659255496,638791.1947945318,718879.7884907064
11,680270.3670402823,639005.832714068,718691.8029377621
11.2,680239.1380383545,639212.1961906069,718514.6303626556
11.5,680197.987440164,639506.9086163931,718267.3705042547
11.8,680162.7175433973,639784.752072637,718040.1536913874
12,680142.0200790303,639961.1170306941,717898.7480192881
12.2,680123.3048858483,640130.7363309993,717764.7384425532
12.5,680098.5132465503,640373.1421621571,717576.4846574122
12.8,680077.1437270084,640601.942075567,717402.1843440015
13,680064.5512586565,640747.3523279362,717293.0587797015
13.2,680053.1321080355,640887.3543261858,717189.1669270574
13.5,680037.959541074,641087.7328310664,717042.4226003217
13.8,680024.8431664652,641277.2316090872,716905.6985591308
14,680017.1001659789,641397.8712816718,716819.6676376315
14.2,680010.0719325171,641514.1887378786,716737.4469885323
14.5,680000.7281885009,641680.9708084861,716620.7756663309
14.8,679992.652283799,641839.0495315169,716511.4907284215
15,679987.8894457959,641939.8770417308,716442.4310663749
15.5,679977.8470128594,642177.1108230142,716281.8778464199
16,679970.0277123901,642394.9021508918,716136.8095744355
16.5,679963.9828221261,642595.2229508326,716005.283824695
17,679959.3589427253,642779.8174710206,715885.6550840236
17.5,679955.8762110446,642950.2298043994,715776.5216943822
18,679953.3118741948,643107.8284312609,715676.6835674277
18.5,679951.4878109087,643253.8278896923,715585.1082374577
19,679950.2609838224,643389.3077875719,715500.9034213978
19.5,679949.516085169,643515.2294141606,715423.2946954459
20,679949.1598361743,643632.4502184909,715351.6072239818
20.5,679949.116541993,643741.7364117696,715285.2507194929
21,679949.3246062157,643843.7739314239,715223.7069951735
21.5,679949.733783342,643939.1779808447,715166.5196105419
22,679950.3030021652,644028.501334514,715113.2852163813
22.5,679950.998633314,644112.2415747526,715063.6462868501
23,679951.7931041825,644190.8474047271,715017.2849897785
23.5,679952.6637869419,644264.7241629234,714973.9179954317
24,679953.5921022489,644334.2386471181,714933.2920626709
24.5,679954.5627941085,644399.7233408745,714895.1802719479
25,679955.563341133,644461.4801225754,714859.3787987712
25.5,679956.5834769515,644519.7835257805,714825.7041406056
26,679957.6147983058,644574.8836100443,714793.9907256472
27,679959.684830207,644676.3665879181,714735.8628550873
27.5,679960.713434402,644723.1485831899,714709.1896221415
28,679961.7326142606,644767.5291983865,714683.9571537375
28.5,679962.7394596518,644809.668742882,714660.063409824
29,679963.731669106,644849.7145026098,714637.4152566508
29.5,679964.7074472626,644887.8019755776,714615.9275475245
30,679965.6654194718,644924.055974456,714595.522312638
30.5,679966.6045605754,644958.591612105,714576.1280433957
31,679967.5241354265,644991.5151838323,714557.6790588239
31.5,679968.423649141,645022.9249584108,714540.1149434533
32,679969.3028054554,645052.9118883589,714523.3800475977
33,679970.9996501758,645108.94821187,714492.1965215987
34,679972.6150793683,645160.2281875608,714463.762834496
35,679974.1509581265,645207.2736448024,714437.765601316
36,679975.6100899896,645250.5371944287,714413.9349678403
37,679976.9958532628,645290.4128980647,714392.0375382126
39,679979.562208269,645361.3356299143,714353.2574459866
40,679980.7504997981,645392.9501111254,714336.0433781332
41,679981.8806168544,645422.3228468582,714320.0925747629
42,679982.9562374912,645449.6612163464,714305.2853500019
43.2,679984.1799983147,645480.0395869458,714288.8781112197
44.5,679985.4295717553,645510.2654359635,714272.6053085539
45.8,679986.6065631617,645538.0001629569,714257.7231289179
47.5,679988.046578454,645570.9507900791,714240.1098629198
48.8,679989.0792034861,645593.9014523695,714227.8900116497
50,679989.9846022192,645613.5473122725,714217.4645652286
51.5,679991.0575803906,645636.2368160437,714205.4681722001
53,679992.0713394287,645657.0653738001,714194.5022600729
55,679993.3409741438,645682.2846504641,714181.2928493957
56.5,679994.2383866465,645699.5060394469,714172.3217043595
58,679995.0939385508,645715.4398120054,714164.0620285998
60,679996.176587573,645734.9001759515,714154.0350896114
61.5,679996.9497077971,645748.2995472037,714147.1756422013
63,679997.6931066428,645760.7806739827,714140.8237169322
64.5,679998.4096720301,645772.4278343335,714134.932975218
66,679999.1020099203,645783.3159199955,714129.4623048946
67.5,679999.7724748871,645793.5116615081,714124.3751277867
68.8,680000.3375036066,645801.8341829699,714120.25113054
70,680000.8470045157,645809.1250880426,714116.6616498197
71.5,680001.4690216988,645817.7494499297,714112.4467507704
73.2,680002.1559409141,645826.9188465127,714108.006610401
75,680002.8646797698,645835.9889665538,714103.6615517238
76.5,680003.4423217358,645843.0891238269,714100.2968933828
78,680004.0094567592,645849.80675593,714097.1466196787
80,680004.7511744717,645858.218023008,714093.2528546515
82,680005.4784954444,645866.0614302603,714089.6792601307
84,680006.1935028792,645873.391026679,714086.3965010095
86,680006.8980523633,645880.2546768647,714083.3786167126
88,680007.5937998779,645886.6948897246,714080.6025649116
90,680008.2822259382,645892.7495205344,714078.0478356403
92,680008.9646564472,645898.4523679985,714075.6961236644
94,680009.6422807556,645903.8336838627,714073.5310492592
96,680010.3161673347,645908.9206094091,714071.5379193941
98,680010.9872774143,645913.7375505735,714069.7035227693
100,680011.6564768731,645918.3065013476,714068.0159533344
102,680012.3245466315,645922.6473234531,714066.4644578471
104,680012.9921917551,645926.7779889143,714065.0393038035
106,680013.6600494443,645930.7147910413,714063.7316646869
108,680014.3286960651,645934.4725284455,714062.5335199841
110,680014.9986533447,645938.0646659447,714061.4375678392
112,680015.6703938458,645941.5034756238,714060.4371485498
115,680016.6822738667,645946.3984426155,714059.1024759217
118,680017.7004008017,645951.0072692744,714057.9507677816
120,680018.3831750444,645953.9356757108,714057.2765366356
122,680019.0695096119,645956.7580847703,714056.6720813025
125,680020.1062541739,645960.8086869876,714055.8876280363
128,680021.1523777456,645964.6591558565,714055.2391797
130,680021.8553413166,645967.1247344834,714054.8770663633
132,680022.562951137,645969.515393621,714054.5676872046
135,680023.6334204747,645972.9714584355,714054.1966686558
138,680024.7151679108,645976.2847714372,714053.930020291
140,680025.4427987328,645978.4209947758,714053.806537459
142,680026.1757240858,645980.5033422927,714053.7241101973
145,680027.285236893,645983.533116126,714053.6733716936
148,680028.407132117,645986.4595137865,714053.7049769345
150,680029.1620513322,645988.3576544528,714053.7691656284
