Frequency,Nominal,Min,Max
0.225,-0.008197888267989157,-0.056430469992103764,0.02336234413281828
0.23,-0.008584651007538887,-0.05896619029534443,0.02439784851296275
0.235,-0.008981542502722357,-0.06155761884283094,0.02545482723434686
0.24,-0.009388668489168086,-0.06420475329719716,0.02653319551452248
0.245,-0.009806136923928885,-0.06690759117463455,0.027632866636290256
0.25,-0.01023405798185633,-0.06966612983902906,0.02875375194069444
0.255,-0.010672544051844354,-0.0724803664959837,0.029895760819879928
0.26,-0.011121709732965985,-0.07535029818676493,0.031058800709844188
0.27,-0.012052549351932564,-0.0812572339760283,0.033447593440642596
0.275,-0.012534463502573912,-0.08429423127939392,0.034673151305326236
0.28,-0.013027537681441832,-0.08738691001357206,0.03591935021299232
0.285,-0.013531897476719415,-0.0905352663038766,0.037186087705102656
0.29,-0.014047670661243423,-0.09373929607297536,0.03847325932055363
0.295,-0.014574987187810508,-0.09699899503421291,0.039780758587498334
0.3,-0.015113979184384459,-0.10031435868482852,0.04110847701504697
0.305,-0.015664780949158044,-0.10368538229913257,0.0424563040848186
0.31,-0.016227528945533146,-0.10711206092158271,0.04382412724238983
0.315,-0.016802361796885858,-0.11059438935978358,0.045211831888617514
0.32,-0.017389420281261364,-0.11413236217742434,0.046619301370846467
0.33,-0.018600788001829745,-0.12137521794322917,0.04949305791136772
0.34,-0.019862801214340954,-0.12884057957708017,0.052444422230245674
0.35,-0.021176663136920543,-0.13652839407033984,0.055472386254273254
0.36,-0.0225436109036235,-0.14443860380976023,0.058575908168618546
0.37,-0.02396491535975161,-0.1525711463357789,0.06175391210753678
0.39,-0.026975844980443826,-0.16950295420314443,0.0683288904378744
0.4,-0.028568178409943246,-0.17830206817067926,0.07172353996443538
0.41,-0.03022028457752065,-0.1873232116716061,0.07518802112093463
0.42,-0.03193359945855096,-0.19656629427538735,0.07872108291396468
0.432,-0.034072442355061,-0.20795081627013906,0.08304946879922648
0.445,-0.03649438875107386,-0.22064433280647913,0.08784524184276164
0.458,-0.03902870095003765,-0.2337123032709147,0.09274902928128229
0.475,-0.04251814655823195,-0.2513657425671396,0.09931944474316369
0.488,-0.04532518838418529,-0.2652967760386132,0.10446039585827667
0.5,-0.04802646148295801,-0.2784876910511342,0.1092923013038252
0.515,-0.05155639256064413,-0.2954234359275191,0.1154445557623787
0.53,-0.055262225769716566,-0.3128554280412903,0.12171650026395717
0.55,-0.060487451744115475,-0.3368689566249714,0.1302553443866457
0.565,-0.06462752322838976,-0.35545638851912287,0.13678392750124413
0.58,-0.06896423285856351,-0.37453783089894993,0.14341229767515465
0.6,-0.07506367553169943,-0.40074685523905573,0.1523942120300861
0.615,-0.0798847725576245,-0.42097785255210407,0.15923005810727656
0.63,-0.08492472642602082,-0.4417000375755253,0.16614343104729096
0.645,-0.09019046983797312,-0.46291243880191413,0.17312717688490395
0.66,-0.09568905092969197,-0.4846140239975818,0.1801739169109387
0.675,-0.10142762853692262,-0.5068036984895087,0.1872760448913905
0.688,-0.1066008054338014,-0.5264286657504281,0.19346997405400743
0.7,-0.11154502681644475,-0.5448679552229663,0.19921461963669068
0.715,-0.11795938168290353,-0.5683533569510903,0.20642550361045253
0.732,-0.12555229841470678,-0.5955545869194803,0.21462821159377724
0.75,-0.1339781311698379,-0.6250305224451508,0.22333502553383372
0.765,-0.14131257214955903,-0.6501220470510217,0.23059667956552193
0.78,-0.14893977832618133,-0.6756921187847059,0.23785389224729694
0.8,-0.15957837230080768,-0.7105270946955178,0.2475067858712884
0.82,-0.17077015783847851,-0.7462057674426104,0.2571116006374223
0.84,-0.18253405109349774,-0.7827237816957028,0.2666443094143018
0.86,-0.19488909275595345,-0.8200765378588866,0.27608009285300933
0.88,-0.20785441640128213,-0.8582591890216347,0.28539333665718736
0.9,-0.2214492157046596,-0.8972666384508592,0.29455763053844825
0.92,-0.23569271056484428,-0.9370935376357088,0.30354576902318403
0.94,-0.25060411219086576,-0.9777342848940839,0.3123297542821064
0.96,-0.266202587213854,-1.0191830245476317,0.32088080115793216
0.98,-0.28250722089550506,-1.061433646669245,0.3291693445701991
1,-0.2995369795136908,-1.104479787404899,0.33716504947845094
1.02,-0.3173106720150831,-1.1483148298688508,0.34483682358626006
1.04,-0.3358469110336023,-1.1929319056091976,0.35215283296842786
1.06,-0.3551640733824491,-1.2383238966380576,0.3590805208019411
1.08,-0.3752802601361454,-1.2844834380186083,0.3655866293778149
1.1,-0.39621325642718835,-1.3314029209988332,0.371637225565835
1.12,-0.41798049108978264,-1.3790744966797328,0.37719772989663664
1.15,-0.4522326795231909,-1.4519742850137887,0.38454242079044754
1.18,-0.48845572249564395,-1.5265197801988668,0.3905839194466399
1.2,-0.5137256639444018,-1.5771165918041614,0.39382656788803433
1.22,-0.5399102384004935,-1.6284228132555123,0.3963978215660049
1.25,-0.5809334822280512,-1.7066921418987004,0.39891343717682526
1.28,-0.6240931040282554,-1.786505090831127,0.3997053608991416
1.3,-0.6540742583965741,-1.8405551306444699,0.3992117843946901
1.32,-0.6850356515632798,-1.8952667213097678,0.39785602269744746
1.35,-0.7333394305262296,-1.978552347929193,0.3941213237880816
1.38,-0.7839067758619052,-2.0632688674713386,0.38822971088057096
1.4,-0.8188905406054786,-2.1205239592799523,0.3830397490868112
1.42,-0.8549010652166176,-2.1783885108124545,0.3767956326064138
1.45,-0.9108564473490544,-2.26630435166632,0.36537074170322037
1.48,-0.9691556647746981,-2.355530050404872,0.35136458259787273
1.5,-1.009331048534494,-2.4157230268015044,0.3405328439758199
1.55,-1.1143715855340655,-2.568605524745303,0.30796900868615096
1.6,-1.2259975845998745,-2.724774361119045,0.2671565690730805
1.65,-1.3441904680597165,-2.8840499621798936,0.2176173120490554
1.7,-1.4688938451256859,-3.0462515832938566,0.15892728794469219
1.75,-1.6000144679241246,-3.2111981979105906,0.09072595954157624
1.8,-1.7374238151021766,-3.3787093458951705,0.01272428714915131
1.85,-1.8809602443512476,-3.564470116565281,-0.07528863112026246
1.9,-2.0304316376063265,-3.773817581684147,-0.17344069284991215
1.95,-2.1856184494216695,-4.01850663101894,-0.2817739484313022
2,-2.346277060608161,-4.270233933630287,-0.4002439307979361
2.05,-2.51214333578039,-4.5252626125927735,-0.5287211926174541
2.1,-2.682936284769242,-4.783047800215352,-0.6669949684357901
2.15,-2.8583617333700624,-5.043074834593151,-0.8147787693415323
2.2,-3.0381159178513544,-5.304861340521203,-0.971717624796278
2.25,-3.2218889291455506,-5.567958412263367,-1.1373966176828656
2.3,-3.4093679457415575,-5.831951032991527,-1.2794441173239437
2.35,-3.600240208096503,-6.096457863538597,-1.4041288735848554
2.4,-3.7941957010816827,-6.361130525527607,-1.5342852365491684
2.45,-3.9909295239185223,-6.625652492823466,-1.6697259373921791
2.5,-4.190143938751628,-6.889737692160893,-1.810243747219079
2.55,-4.391550099121563,-7.15312889995041,-1.9556142635622416
2.6,-4.5948694679673014,-7.4155960085513595,-2.10559877413876
2.7,-5.006191699090103,-7.936962232112593,-2.4184005775653943
2.75,-5.213697806279894,-8.195520405784695,-2.5806944659353754
2.8,-5.422124592528039,-8.452469024492832,-2.7465608355446176
2.85,-5.631256835240687,-8.707686585268295,-2.9153241148266424
2.9,-5.840892774013554,-8.961068185284587,-3.052617044353176
2.95,-6.0508439817293125,-9.212523997378481,-3.192218035256651
3,-6.2609351165852365,-9.4619778424157,-3.333989573862419
3.05,-6.47100357738053,-9.709365860807024,-3.4777940248435235
3.1,-6.680899082296983,-9.954635282977284,-3.6234943342504318
3.15,-6.890483189212762,-10.197743296718382,-3.7709546732244474
3.2,-7.099628773390998,-10.438656008003006,-3.920041020262643
3.3,-7.516149136926973,-10.913798921613765,-4.222567746785729
3.4,-7.929648222439285,-11.379937192629075,-4.530056703897643
3.5,-8.3394588849246,-11.837034153098474,-4.841545951245305
3.6,-8.745040893318878,-12.285123547840765,-5.1561376336978775
3.7,-9.145964059678727,-12.724293469838134,-5.473003033034949
3.9,-9.932571894400171,-13.576423634967538,-6.110597837603137
4,-10.317814676578895,-13.989727190994472,-6.430026402662065
4.1,-10.697491614846886,-14.394782887782164,-6.749122715780953
4.2,-11.071521175567849,-14.791800201607133,-7.067402603532157
4.32,-11.512845767618439,-15.257914619230323,-7.44766678236164
4.45,-11.98169351024081,-15.750599946833585,-7.856877709536295
4.58,-12.440973992748066,-16.230992086508483,-8.262590329100604
4.75,-13.027330245172726,-16.84143917813263,-8.78697090961192
4.88,-13.46503482909528,-17.29526178545427,-9.182718197000886
5,-13.861034083402032,-17.704611627784054,-9.543675724709276
5.15,-14.34544875594698,-18.20391813671519,-9.988708438651479
5.3,-14.818430691455305,-18.69006001725233,-10.426644640278134
5.5,-15.431919279557786,-19.318810681772728,-10.999227862418586
5.65,-15.879650399517066,-19.77653055033639,-11.42005227661337
5.8,-16.317176339553917,-20.222978531414938,-11.833467964950973
6,-16.885298266196948,-20.801572327801708,-12.373216747597981
6.15,-17.30041525568559,-21.22362348855146,-12.769513328168266
6.3,-17.70650770078243,-21.635969155286045,-13.1586203653635
6.45,-18.103907200250752,-22.03902278274878,-13.540658145073056
6.6,-18.49293324375767,-22.43317435088967,-13.915762003739015
6.75,-18.873892875006504,-22.818791789382594,-14.284078257661907
6.88,-19.197761014925305,-23.146359318001252,-14.597914146533434
7,-19.491694488382617,-23.44345713849455,-14.883275714311994
7.15,-19.852549791130567,-23.80796254248552,-15.234257199943373
7.32,-20.253013964313617,-24.21219600333,-15.624544979765624
7.5,-20.66757225318707,-24.630368645294393,-16.02936885159911
7.65,-21.00589196653356,-24.971437762621495,-16.36030251923288
7.8,-21.337955914731403,-25.30603779798153,-16.685570465925515
8,-21.771345859146617,-25.742513061452637,-17.110718180816097
8.2,-22.19447607750791,-26.168429107965046,-17.526434238416332
8.4,-22.607799266018667,-26.584275250969604,-17.933069476488267
8.6,-23.01174113417201,-26.99050855089906,-18.330962212953686
8.8,-23.406702194901072,-27.387556464820054,-18.720437743110033
9,-23.79305946236428,-27.775819248348363,-19.101808140281335
9.2,-24.171168050653474,-28.155672133690036,-19.475372280224978
9.4,-24.54136267128282,-28.52746730577731,-19.84141602829513
9.6,-24.90395903039934,-28.891535696540288,-20.200212542749604
9.8,-25.25925512868032,-29.248188615476586,-20.552022658667145
10,-25.607532468156712,-29.597719232902854,-20.89709532547801
10.2,-25.94905717094763,-29.9404039306193,-21.23566807768691
10.4,-26.284081015267525,-30.276503533202362,-21.567967523433268
10.6,-26.612842394189272,-30.606264431763208,-21.894209839434833
10.8,-26.935567202596346,-30.929919610766383,-22.214601263862495
11,-27.252469657592947,-31.24768958738551,-22.52933858100055
11.2,-27.563753057404988,-31.559783271872952,-22.838609593316672
11.5,-28.020562161713357,-32.01771129920951,-23.292656736152423
11.8,-28.465772507976972,-32.46393769333597,-23.735377559928704
12,-28.75641779739281,-32.75520947224864,-24.02449733976306
12.2,-29.042319569351342,-33.04170088208748,-24.30897043835489
12.5,-29.46260617486153,-33.46280919410632,-24.727278344538437
12.8,-29.873037743195212,-33.873994851097784,-25.135907567821402
13,-30.141406194755994,-34.14283223821419,-25.403162236293223
13.2,-30.405719636050996,-34.40758992522448,-25.666425816652662
13.5,-30.794847408338377,-34.79734167829075,-26.054088181645266
13.8,-31.175502850755123,-35.178575014544,-26.433396714900347
14,-31.42474447958422,-35.42817867462815,-26.6817999231682
14.2,-31.670481431937226,-35.674260560108095,-26.92674212825238
14.5,-32.0327260316301,-36.03699300367686,-27.287869883408383
14.8,-32.38761181288374,-36.3923342524529,-27.64172101959612
15,-32.62025890611711,-36.625268552081515,-27.87371995731901
15.5,-33.18866866058245,-37.19434473072059,-28.440639445992616
16,-33.7391569672209,-37.745434561642014,-28.98980053917681
16.5,-34.27281644787585,-38.279640035119606,-29.522271703378316
17,-34.790643378131264,-38.797965213680186,-30.03902928301711
17.5,-35.29354861226475,-39.301327466245574,-30.540967577057376
18,-35.78236701613377,-39.79056714211119,-31.02890761386987
18.5,-36.257865643302964,-40.266455936586915,-31.503604812855276
19,-36.72075084813709,-40.729704154192135,-31.965755692204617
19.5,-37.171674496045156,-41.18096703863732,-32.41600375753038
20,-37.6112394038961,-41.62085030939842,-32.85494468536647
20.5,-38.04000412153104,-42.049915020942834,-33.28313089812783
21,-38.458487147248974,-42.468681841397725,-33.7010756125214
21.5,-38.867170655338846,-42.877634831741034,-34.1092564311535
22,-39.266503801538555,-43.277224793721956,-34.508118536798094
22.5,-39.65690566221867,-43.66787224412187,-34.89807754014693
23,-40.03876785471866,-44.049970064204174,-35.279522024584494
23.5,-40.412456879287674,-44.423885865927005,-35.65281582538859
24,-40.77831621724806,-44.789964110426254,-36.01830007556401
24.5,-41.13666821510136,-45.14852800919939,-36.376295046114045
25,-41.487815780171644,-45.49988123415433,-36.72710180481501
25.5,-41.83204390989338,-45.84430945909038,-37.07100371437291
26,-42.16962107389443,-46.182081752134124,-37.408267788122316
27,-42.82582113721436,-46.838659231295935,-38.063875996325166
27.5,-43.14490903262937,-47.15793029428105,-38.382682920414766
28,-43.45827792617652,-47.47147916273592,-38.6957795291536
28.5,-43.76613028010233,-47.779508617389254,-39.003367442395046
29,-44.06865802742149,-48.08221086901585,-39.30563783453198
29.5,-44.366043288317066,-48.37976827835729,-39.60277214182971
30,-44.65845902665704,-48.67235401567412,-39.89494271107242
30.5,-44.94606965252316,-48.960132665894136,-40.18231339524527
31,-45.22903157598328,-49.243260784644846,-40.465040101337266
31.5,-45.50749371675699,-49.521887409868306,-40.74327129479191
32,-45.78159797391617,-49.79615453320146,-41.01714846464353
33,-46.31726789805856,-50.33214558530277,-41.55237435172489
34,-46.83705179760453,-50.8522446675053,-42.07172567587496
35,-47.341872350624065,-51.357374398006066,-42.57612307645993
36,-47.83257431169646,-51.848379157043645,-43.066409693763674
37,-48.309933013360336,-52.326033604099734,-43.54335961376403
39,-49.227418121236816,-53.24408491612162,-44.460043441732175
40,-49.668809775418914,-53.68574426010588,-44.90104159235679
41,-50.09939917982743,-54.11658876544182,-45.33124199739734
42,-50.51970801041492,-54.537138018164214,-45.751166429392015
43.2,-51.01118827902268,-55.02888404689388,-46.242191945273476
44.5,-51.528601297882176,-55.54655179888428,-46.759121395683316
45.8,-52.03126675192573,-56.049430858587435,-47.261314418365295
47.5,-52.667710805967445,-56.68607926750833,-47.89716135641814
48.8,-53.13938156496831,-57.15783777646528,-48.36839503547063
50,-53.56386871956069,-57.58234380495164,-48.79249712668467
51.5,-54.08052964390123,-58.09893092619849,-49.30870665210393
53,-54.58251705849614,-58.60071886133242,-49.8102827606361
55,-55.23039962610581,-59.248103931071086,-50.45769387330455
56.5,-55.70118489734064,-59.718312349126926,-50.92819578492968
58,-56.15974526545257,-60.17609268220894,-51.38654513514537
60,-56.75318683743397,-60.76812883633067,-51.97983926350463
61.5,-57.18550473184376,-61.19907807925043,-52.4121648744185
63,-57.60744417842319,-61.619341263333574,-52.83423039301969
64.5,-58.01946798955514,-62.02934404274188,-53.24651544431346
66,-58.422003226224575,-62.42947346616235,-53.649465402807294
67.5,-58.81544409459802,-62.820080797530295,-54.043494353750305
68.8,-59.1493518663594,-63.151151430234535,-54.378068608710855
70,-59.45194484125548,-63.450782353224746,-54.68141966933007
71.5,-59.822838053603995,-63.817468609014654,-55.0534730454975
73.2,-60.233658484605115,-64.22277943805214,-55.465924943774816
75,-60.6580306623047,-64.6403695556211,-55.89243515557
76.5,-61.00363371336178,-64.97950156620269,-56.24017956926693
78,-61.342165417865935,-65.31074932179214,-56.58121421993197
80,-61.782890580326544,-65.7403823960707,-57.025899139081474
82,-62.21183906547068,-66.15650977444143,-57.459599472857676
84,-62.62939395551746,-66.55934255786441,-57.88279245472606
86,-63.0358904070835,-66.94903829409525,-58.29591397366908
88,-63.431618876908125,-67.32570590121215,-58.699361749305524
90,-63.81682806205565,-67.68941067117129,-59.093498130781434
92,-64.19172762176413,-68.04017943275943,-59.47865257209369
94,-64.55649074139633,-68.37800593422489,-59.855123829305725
96,-64.91125659314694,-68.70285648456112,-60.22318191920612
98,-65.25613274291167,-69.01467586872673,-60.583069874105114
100,-65.59119754771822,-69.31339352619284,-60.93500532346773
102,-65.91650258307256,-69.59892995468462,-61.27918192978487
104,-66.23207513424407,-69.87120327280897,-61.615770703356105
106,-66.5379207796903,-70.13013584780214,-61.94492121838567
108,-66.83402608834764,-70.37566086958026,-62.2667627508842
110,-67.12036144528464,-70.60772873151913,-62.58140535723747
112,-67.39688401219203,-70.82631306383323,-62.88894091087635
115,-67.7931510310649,-71.12892225377125,-63.33707747742335
118,-68.16701401740771,-71.40136095697491,-63.7695724126865
120,-68.40370320835919,-71.56639060057623,-64.04927008032833
122,-68.63027903570978,-71.71832058127627,-64.32208260101197
125,-68.95106482581375,-71.92210576046611,-64.71839764542453
128,-69.24883945700473,-72.09774201700677,-65.09919677034677
130,-69.43453684430001,-72.19971598997718,-65.34440646369303
132,-69.60998057941566,-72.29001735506998,-65.58265447637523
135,-69.85398108616677,-72.40446421312276,-65.9268887853138
138,-70.07515463922793,-72.49501726827185,-66.25522681358207
140,-70.21006947525889,-72.5428864504323,-66.46521007272418
142,-70.3350981734639,-72.58132147293894,-66.66801143016811
145,-70.50444133688073,-72.62237053763118,-66.95864870868897
148,-70.6525023889569,-72.64499568498587,-67.23288620815187
150,-70.73974692933339,-72.6506725217702,-67.40654353557866
