Frequency,Nominal,Min,Max
0.225,-0.14533486730312364,-0.18336486568836907,-0.110362359737997
0.23,-0.14858153013756675,-0.18747327172380196,-0.11282238279378068
0.235,-0.1518293002624988,-0.1915838519902035,-0.11528289866408829
0.24,-0.15507820027225624,-0.19569664902505796,-0.11774391768991913
0.245,-0.15832825266491582,-0.19981170505626353,-0.12020545018810247
0.25,-0.1615794798401498,-0.20392906199509858,-0.12266750645076846
0.255,-0.1648319040970746,-0.20804876142916442,-0.1251300967448179
0.26,-0.1680855476320943,-0.212170844615306,-0.12759323131139041
0.27,-0.1745965807954945,-0.2204223255747722,-0.13252117409466507
0.275,-0.17785401428363376,-0.2245518041439634,-0.1349860026600476
0.28,-0.181112754765033,-0.2286838280426444,-0.1374514161942446
0.285,-0.18437282388998846,-0.23281843676688005,-0.13991742480158895
0.29,-0.18763424319302635,-0.23695566943902346,-0.14238403855744466
0.295,-0.1908970340907055,-0.2410955648004791,-0.14485126750766938
0.3,-0.19416121787941545,-0.24523816120444467,-0.14731912166807412
0.305,-0.19742681573316806,-0.24938349660863335,-0.14978761102388458
0.31,-0.2006938487013845,-0.2535316085679739,-0.152256745529199
0.315,-0.20396233770667463,-0.25768253422729165,-0.15472653510644627
0.32,-0.20723230354261188,-0.26183631031397053,-0.15719698964584278
0.33,-0.2137767482221484,-0.27015255854757236,-0.16213993300761875
0.34,-0.22032734642292764,-0.2784806384589701,-0.1670856540712945
0.35,-0.22688425961990963,-0.28682082808655257,-0.1720342307432893
0.36,-0.2334476470078629,-0.29517339807900805,-0.17698574036209913
0.37,-0.24001766542878816,-0.30353861145649014,-0.1819402596806552
0.39,-0.25317821053583706,-0.32030798086578405,-0.19185863139454074
0.4,-0.2597690384841148,-0.32871262263488443,-0.19682263420811608
0.41,-0.2663670998421625,-0.3371308787813173,-0.20178994752214277
0.42,-0.27297253858763004,-0.34556297057571883,-0.2067606448945761
0.432,-0.28090900181727857,-0.35570004190394416,-0.21273005124270075
0.445,-0.28951933094982313,-0.36670510057675826,-0.21920267000356652
0.458,-0.29814294116677276,-0.37773472590419566,-0.2256814334214071
0.475,-0.30944048465122914,-0.3921957933741797,-0.23416319025300003
0.488,-0.31809582136723147,-0.4032835464837104,-0.2406567183875973
0.5,-0.3260979547428122,-0.41354123490183764,-0.24665663985054295
0.515,-0.33611793432324133,-0.426394533645774,-0.25416468069294734
0.53,-0.34615750157625996,-0.4392828514394984,-0.2616819712668527
0.55,-0.3595746786904058,-0.45652232118860836,-0.2717197879811552
0.565,-0.3696613139664367,-0.46949355208245414,-0.2792594965540309
0.58,-0.3797686595230318,-0.48250068462977064,-0.2868091594387818
0.6,-0.3932778418086924,-0.49989958813282626,-0.29689120751856724
0.615,-0.40343461971492456,-0.5129908782482786,-0.30446486935512157
0.63,-0.413613007261043,-0.5261182414509752,-0.3120491348636259
0.645,-0.42381322756864664,-0.5392815821169068,-0.3196441872795138
0.66,-0.4340354812168664,-0.5524807343206966,-0.32725020423712936
0.675,-0.4442799456927705,-0.5657154605973082,-0.3348673576231087
0.688,-0.4531765672023273,-0.5772140943426066,-0.34147802714727127
0.7,-0.4614038174971683,-0.5878515154884186,-0.3475878089975491
0.715,-0.47170819714536993,-0.6011793889808377,-0.35523545456800437
0.732,-0.4834138856087242,-0.6163254732932837,-0.363916956273325
0.75,-0.49583995865040187,-0.6324092483144608,-0.3731257661749203
0.765,-0.5062200551655757,-0.6458482949073909,-0.3808130073842074
0.78,-0.5166229141418232,-0.6593191675252602,-0.38851241496664457
0.8,-0.5305287524495415,-0.6773283722590838,-0.3987974246901296
0.82,-0.5444748707068647,-0.6953904416817174,-0.4091045434909184
0.84,-0.5584610426190404,-0.713502921120659,-0.4194340147777185
0.86,-0.5724869515506453,-0.7316631120653515,-0.42978605843506457
0.88,-0.5865521890563259,-0.7498680743024754,-0.4401608702316416
0.9,-0.6006562535568971,-0.7681146290610572,-0.4505586212366654
0.92,-0.6147985491722994,-0.7863993631949258,-0.46097945724554956
0.94,-0.6289783847228636,-0.8047186344226495,-0.47142349821615526
0.96,-0.6431949729101912,-0.8230685776369632,-0.48189083771696106
0.98,-0.657447429688733,-0.8414451122869451,-0.4923815423885485
1,-0.671734773838818,-0.859843950826925,-0.5028956514198489
1.02,-0.6860559267514558,-0.8782606082163913,-0.5134331760406358
1.04,-0.700409712434709,-0.89669041244519,-0.523994099031794
1.06,-0.7147948577507811,-0.915128516048143,-0.5345783742549355
1.08,-0.7292099928922442,-0.9335699085630897,-0.5451859262029601
1.1,-0.7436536521049533,-0.9520094298763607,-0.5558166495731935
1.12,-0.7581242746642669,-0.9704417843900578,-0.5664704088647569
1.15,-0.7798771203792098,-0.9980650013974053,-0.5824938684169033
1.18,-0.8016809184003298,-1.0256411766464277,-0.5985680865690381
1.2,-0.8162419364661765,-1.0439897335927975,-0.6093120179786539
1.22,-0.8308207421961044,-1.0623031567599404,-0.6200778426476085
1.25,-0.852717697000289,-1.089694775910271,-0.6362669128884301
1.28,-0.8746425316413874,-1.1169747844042472,-0.6525032793085173
1.3,-0.8892707432635257,-1.1350898002951442,-0.6633531185729238
1.32,-0.9039054908517417,-1.15314077406591,-0.6742229099547017
1.35,-0.9258644565603973,-1.180084693635578,-0.6905639359958154
1.38,-0.947823984553868,-1.2068527342884947,-0.7069469777227343
1.4,-0.9624596145420448,-1.224591218934491,-0.7178913961197767
1.42,-0.9770888688409528,-1.242237942633245,-0.7288530139127992
1.45,-0.999014802808503,-1.2685245796059923,-0.7453262649638892
1.48,-1.0209108383672114,-1.2945759794970506,-0.7618344329053361
1.5,-1.0354868737967275,-1.3118048284560406,-0.7728580600145329
1.55,-1.071831442879779,-1.354358074047621,-0.8004750785981973
1.6,-1.1080034099048617,-1.3961174510153171,-0.8281644386424115
1.65,-1.1439574932084742,-1.4370238360114955,-0.85591213203896
1.7,-1.1796487625553447,-1.477026305868902,-0.8837030905861961
1.75,-1.2150331574996167,-1.5160823479830985,-0.9115212642307623
1.8,-1.2500679783586,-1.5541578439184969,-0.9393497110608567
1.85,-1.2847123382693617,-1.5912268552876314,-0.9671706982321822
1.9,-1.3189275665717448,-1.6272712459000687,-0.9949658127434036
1.95,-1.3526775559006703,-1.6622801762101576,-1.022716080730352
2,-1.385929047728936,-1.6962495056335005,-1.0504020937271372
2.05,-1.4186518535272918,-1.7291811359065596,-1.0780041401569374
2.1,-1.4508190110578572,-1.7610823249289613,-1.105502340173421
2.15,-1.4824068774665524,-1.7919649960182344,-1.132876781881732
2.2,-1.5133951626944098,-1.8218450627058487,-1.1601076569298334
2.25,-1.5437669082228744,-1.850741784490112,-1.187175393478493
2.3,-1.5735084172734146,-1.8786771646044396,-1.2140607846305693
2.35,-1.6026091432955463,-1.905675397025385,-1.240745110524332
2.4,-1.6310615439233647,-1.9317623667154094,-1.2672102524659716
2.45,-1.658860907600855,-1.9569652044866002,-1.2934387976859067
2.5,-1.6860051598246837,-1.9813118958534455,-1.3194141335433003
2.55,-1.7124946554895373,-2.0048309417563104,-1.3451205302637594
2.6,-1.7383319632053313,-2.0275510680083055,-1.3705432115665002
2.7,-1.7880700480154628,-2.0707091561919273,-1.4204834265459978
2.75,-1.8119850752095314,-2.091203683106304,-1.4449766356313258
2.8,-1.8352759990036904,-2.1110121159907567,-1.4691375342488575
2.85,-1.8579532590523105,-2.130161372746743,-1.4929567374150425
2.9,-1.8800282823531604,-2.1486776503772322,-1.5164259796937627
2.95,-1.9015133145438707,-2.1665863628092543,-1.539538103980046
3,-1.922421264715846,-2.183912096617136,-1.5622870413122083
3.05,-1.9427655639457837,-2.2006785818356525,-1.5846677827369198
3.1,-1.962560037431075,-2.216908675375618,-1.6066763442863627
3.15,-1.9818187898689408,-2.232624354861281,-1.6283097261333617
3.2,-2.0005561035327215,-2.2478467209938406,-1.649565866972604
3.3,-2.036523903312994,-2.276891592404656,-1.6909425739077883
3.4,-2.0705781045185994,-2.3041950363155776,-1.73080680530061
3.5,-2.102831558300776,-2.329895834335637,-1.769170539768143
3.6,-2.1333938144134055,-2.3541206133061,-1.8060556281902052
3.7,-2.162370092555181,-2.3769847344993438,-1.8414920752904524
3.9,-2.2159602290839175,-2.4190415699870234,-1.9081702827898448
4,-2.2407582228417477,-2.4384167738989877,-1.9394990054785777
4.1,-2.2643383263113313,-2.4567979579860943,-1.9695505494773637
4.2,-2.2867788062109455,-2.474257206452066,-1.9983744924120816
4.32,-2.3123054842315747,-2.4940834551514524,-2.0314137340685843
4.45,-2.3383607617297297,-2.5142890458475726,-2.065394341366957
4.58,-2.3628850249615208,-2.5332842965945996,-2.09759708725577
4.75,-2.3928479701719954,-2.5564694612669876,-2.1372023452761817
4.88,-2.4142891033972926,-2.573049965494816,-2.1657017773444114
5,-2.433043518627939,-2.587548503489457,-2.190726823509168
5.15,-2.455195467980091,-2.6046713554550633,-2.2203892076488065
5.3,-2.476028182793101,-2.620775062085422,-2.248375342910008
5.5,-2.5019435922113895,-2.640812526495997,-2.283292913271168
5.65,-2.5201110505291697,-2.654864970704257,-2.3078280122676467
5.8,-2.5372876638979127,-2.6681568880095976,-2.3310599270362644
6,-2.558781877929218,-2.684799982200384,-2.3601692148683937
6.15,-2.573936035502638,-2.696541859847393,-2.3807111401133856
6.3,-2.588330453749397,-2.7077019822570727,-2.400233213463998
6.45,-2.6020206298150823,-2.718322968685359,-2.418805891286408
6.6,-2.615056910447658,-2.72844339815464,-2.436493860611772
6.75,-2.6274850544080204,-2.7380982721025364,-2.4533565286364447
6.88,-2.637796498541785,-2.7461139205891443,-2.4673455697772777
7,-2.6469587085538433,-2.7532403111776036,-2.4797732219279416
7.15,-2.657959085975496,-2.7618017564986856,-2.4946901682817106
7.32,-2.6698569411297974,-2.771068516752441,-2.5108177467527373
7.5,-2.6818416500966955,-2.780410406812284,-2.527054726865557
7.65,-2.6913803493866144,-2.787851255366442,-2.5399707816718706
7.8,-2.7005376504259693,-2.7949994092775166,-2.552363719312889
8,-2.7121930620293253,-2.8041046457810888,-2.568126907434302
8.2,-2.7232595847060046,-2.8127574250912963,-2.5830815981908364
8.4,-2.7337813653814576,-2.820991378331295,-2.597288222759324
8.6,-2.743798266748437,-2.8288368866289892,-2.6108014854748793
8.8,-2.753346370286476,-2.8363214643908075,-2.623671000909528
9,-2.762458411005491,-2.8434700897590144,-2.635941852447091
9.2,-2.7711641542834693,-2.8503054905070155,-2.6476550824740372
9.4,-2.779490723450499,-2.856848392196069,-2.658848123054424
9.6,-2.7874628853570673,-2.8631177342562912,-2.669555174820932
9.8,-2.795103299997731,-2.8691308587098567,-2.6798075408000974
10,-2.802432739296579,-2.874903675481692,-2.6896339209956257
10.2,-2.8094702793614292,-2.8804508076089044,-2.699060672771564
10.4,-2.816233469849516,-2.8857857191377496,-2.7081120413970186
10.6,-2.822738483534188,-2.8909208280649814,-2.7168103645251995
10.8,-2.829000248700119,-2.895867606321876,-2.725176253871012
11,-2.835032566607672,-2.900636668500668,-2.7332287569130713
11.2,-2.840848215942242,-2.9052378507736147,-2.7409855010685695
11.5,-2.849191122945354,-2.9118446390830584,-2.752101480184944
11.8,-2.857109486837594,-2.9181222293943168,-2.762638764351613
12,-2.8621688540866463,-2.9221369964743045,-2.769364579169265
12.2,-2.867063041021291,-2.9260236063967064,-2.775865535930366
12.5,-2.874112589668587,-2.9316271341484534,-2.7852200669622844
12.8,-2.8808347337402957,-2.9369765502856957,-2.7941294354864263
13,-2.8851458697663848,-2.940410641592999,-2.7998376067106348
13.2,-2.889328256581359,-2.943744789535314,-2.8053709067285073
13.5,-2.89537339813281,-2.948568682687351,-2.813360719390284
13.8,-2.9011608716025976,-2.9531925682701723,-2.8210008711684886
14,-2.90488451141582,-2.956170631964054,-2.8259116238610202
14.2,-2.9085059133221765,-2.9590693568311743,-2.830683740482165
14.5,-2.9137559086876816,-2.9632761523401934,-2.8375950452585683
14.8,-2.918799615612661,-2.9673229395611584,-2.844226777919467
15,-2.922053818817586,-2.969936847771006,-2.848501237649513
15.5,-2.92983573622206,-2.9761975890301113,-2.858708402693036
16,-2.937151822043217,-2.9820975857097025,-2.8682846399121584
16.5,-2.9440460436641396,-2.9876712594227453,-2.8772895306864825
17,-2.9505571078711528,-2.992948959975608,-2.885775433541056
17.5,-2.9567192300069167,-2.9979575565352348,-2.89378855016415
18,-2.962562771811444,-3.00272092855659,-2.901369808055161
18.5,-2.9681147734037823,-3.0072603757783773,-2.9085555955255367
19,-2.9733993993690495,-3.0115949624548173,-2.915378377057445
19.5,-2.9784383147234483,-3.015741807824346,-2.9218672111268202
20,-2.9832510033027284,-3.0197163323745864,-2.9280481880568394
20.5,-2.987855038616752,-3.023532467566767,-2.933944801947553
21,-2.992266315258198,-3.0272028351997626,-2.939578267979744
21.5,-2.996499247416757,-3.0307389014264206,-2.944967794232597
22,-3.0005669398344645,-3.034151109509898,-2.9501308154487216
22.5,-3.0044813355702735,-3.03744899467062,-2.9550831948237497
23,-3.0082533441675112,-3.0406412837836987,-2.9598393988132967
23.5,-3.011892953194664,-3.0437359822106327,-2.9644126490784934
24,-3.0154093256257744,-3.046740449663574,-2.9688150549871084
24.5,-3.0188108851169155,-3.049661466686661,-2.97305772951559
25,-3.022105390900516,-3.0525052930823633,-2.977150890931054
25.5,-3.025300003744681,-3.0552777194000638,-2.981103952250161
26,-3.028401344198415,-3.057984112430278,-2.9849256001574536
27,-3.034348292621847,-3.063218384276823,-2.9922061817071173
27.5,-3.03720487641511,-3.0657552185781265,-2.995679446738588
28,-3.0399902164696133,-3.068243990820903,-2.999050065146597
28.5,-3.0427089002626295,-3.0706884713988107,-3.002323995296104
29,-3.045365210854006,-3.0730921914366944,-3.0055067878142876
29.5,-3.0479631529399125,-3.075458463211161,-3.0086036206844327
30,-3.0505064762739798,-3.077790398515112,-3.011619330771333
30.5,-3.0529986967613874,-3.080090925203898,-3.0145584421950535
31,-3.0554431154915394,-3.0823628021298597,-3.0174251919150956
31.5,-3.0578428359408356,-3.0846086326455313,-3.020223552840217
32,-3.0602007795477797,-3.0868308768330976,-3.0229572547390244
33,-3.0648021952509334,-3.0912137957487236,-3.028244496796149
34,-3.069267598778104,-3.0955287711653368,-3.033312571382956
35,-3.0736150943414615,-3.0997913364106697,-3.0381842881763634
36,-3.077860952616759,-3.1040155804819203,-3.0428800127501687
37,-3.0820198604241096,-3.108214344408943,-3.0474180005255134
39,-3.09012888000875,-3.1165815215597186,-3.056084876669303
40,-3.0941021791088956,-3.120770740136706,-3.060242040197798
41,-3.098035181533814,-3.1249763087816573,-3.064298389656503
42,-3.101937233548865,-3.129206856850494,-3.0682650732161036
43.2,-3.106590952228336,-3.1343278089394526,-3.0729210368603144
44.5,-3.1116120777571665,-3.1399442325642988,-3.077854394630856
45.8,-3.1166275092685454,-3.1456470576497364,-3.082690632736999
47.5,-3.1232017185851486,-3.153258588056775,-3.08889585886388
48.8,-3.1282578631356874,-3.1592137361319126,-3.0935688755669393
50,-3.13295893184822,-3.1648261340565265,-3.097839803031201
51.5,-3.13889486454176,-3.172011610480116,-3.1031359469267477
53,-3.144912097113691,-3.1794016864523096,-3.10840090270563
55,-3.153087444769606,-3.189600841982178,-3.1153993817623973
56.5,-3.159351284740052,-3.1975289202425343,-3.120650622346835
58,-3.165743000524707,-3.2057116459885044,-3.125918405158273
60,-3.174485206455184,-3.217041217770017,-3.132988485285994
61.5,-3.1812216532880044,-3.2258693506865153,-3.1383401495941605
63,-3.188124259521187,-3.2349946060106407,-3.1437453226287504
64.5,-3.1952033252212186,-3.244428485522689,-3.149213603297894
66,-3.202468695875176,-3.2541819485628443,-3.1547540397810403
67.5,-3.209929800324274,-3.2642654138599028,-3.160375190061186
68.8,-3.2165614167886094,-3.273278996710905,-3.1653184287629945
70,-3.222824335109463,-3.2818310856143174,-3.1699450131706812
71.5,-3.2308506326153226,-3.292841282634112,-3.1758200489045665
73.2,-3.2402221507932616,-3.3057592245719287,-3.18261016439712
75,-3.2504755310166185,-3.319958115706445,-3.189962881339516
76.5,-3.2592888301964034,-3.3322083365545434,-3.1962263425330737
78,-3.268354050455679,-3.3448448730340354,-3.202620299924984
80,-3.280844485064919,-3.362303490979509,-3.211358952667276
82,-3.2938097807209012,-3.380468246423545,-3.220353987211706
84,-3.3072639228838967,-3.3993463220755853,-3.2296184903852954
86,-3.321219757451615,-3.418941707085261,-3.239164973173415
88,-3.3356889118484045,-3.4392549151471377,-3.2490053993339765
90,-3.3506817010461276,-3.4602827007084715,-3.259151203850677
92,-3.3662070198335843,-3.482017782384456,-3.2696133021159572
94,-3.3822722228306787,-3.5044485838898995,-3.280402090561792
96,-3.398882993996632,-3.5275590038433733,-3.291527439324438
98,-3.4160432077001865,-3.551328226567463,-3.302998677431707
100,-3.433754783793763,-3.5757305863670017,-3.314824570933567
102,-3.452017539549627,-3.6007354975881736,-3.32701329435554
104,-3.4708290417574363,-3.6263074619328903,-3.339572395836953
106,-3.490184462727866,-3.65240616294315,-3.3525087563207614
108,-3.510076444370736,-3.678986655244516,-3.3658285431869372
110,-3.5304949748884216,-3.7059996530728565,-3.3795371587660736
112,-3.5514272829130107,-3.733391918901975,-3.3936391842327036
115,-3.583754129562899,-3.7750665971863544,-3.4155377028837086
118,-3.6171362098884012,-3.817263476222893,-3.4383379284748576
120,-3.6399384129185632,-3.8455801713699524,-3.4540408118400605
122,-3.6631472824924685,-3.873970491434638,-3.470145487892214
125,-3.6986568274072753,-3.916553895383391,-3.4950518030105657
128,-3.7349013896880594,-3.9589463603907133,-3.520846835570681
130,-3.759412140545574,-3.9870011141924144,-3.5385285926820895
132,-3.784155696043822,-4.014823658863834,-3.5565902423591114
135,-3.8216181039876447,-4.056006290003902,-3.584375616225724
138,-3.8593700601417575,-4.096383555671975,-3.61296009185806
140,-3.8846269404507665,-4.122783388783384,-3.6324391159972182
142,-3.909904281205398,-4.148725587162232,-3.6522391606066216
145,-3.9477645200521803,-4.1867130822519645,-3.682504784690523
148,-3.9854318261904096,-4.223514107074969,-3.713393640157507
150,-4.010368811279031,-4.247356362572463,-3.734298708514415
