Frequency,Nominal,Min,Max
2.4748737341529163,0.018455752078110926,0.017275532208126044,0.01966817100368021
2.5248762345905194,0.018490423270876775,0.01730451104663052,0.01970908346831584
2.5748786379167465,0.018525746227366826,0.017334039997432403,0.019750755254646257
2.649528259898354,0.018580026558990086,0.017379428328629508,0.019814770652556466
2.7248853186877424,0.018635594813307076,0.017425906012699943,0.019880282340158813
2.7748873851023212,0.018673493378859787,0.017457613509473426,0.01992494635927193
2.824889378365107,0.018712027394302333,0.01748985976742231,0.019970346306422897
2.8748913022930105,0.018751193231245137,0.0175226422692916,0.02001647696643918
2.924893160441933,0.01879098713190125,0.01755595841051883,0.020063409207510804
2.9748949561287037,0.01883140520580177,0.017589805497035888,0.0201112220789028
3.0248966924508345,0.018872443426442315,0.017624180743057556,0.02015975375996322
3.0748983723043595,0.018914097627914465,0.017659081268823117,0.02020899829376516
3.124899998399949,0.018956363501489788,0.01769450409832567,0.02025894951472513
3.1749015732775088,0.018999236592177164,0.017730446157013934,0.020309601043560537
3.249615361854384,0.019064749073993366,0.017785389713234602,0.020386962345586183
3.349626844888845,0.019154079530853803,0.01786034852394343,0.020492382630987502
3.449637662132068,0.019245750802912583,0.017937323612284135,0.020600477836412077
3.5496478698597698,0.019339719624985402,0.018016285244799504,0.020711185795569406
3.6496575181789317,0.01943593996634709,0.018097201823873275,0.020824440311310824
3.7986839826445156,0.01958464974010702,0.018222401722131062,0.020999237044725734
3.9496835316262997,0.01973760589599488,0.018351335637998744,0.02117875736481049
4.049691346263317,0.019842312666846905,0.018439715966563974,0.021301449876711696
4.149698784249286,0.019948995299192012,0.018529862509235807,0.021426291896336276
4.2595774438317235,0.02006858425616212,0.018631041178226806,0.02156602452865411
4.384518217546827,0.020207149138931346,0.018748446976345087,0.021727639273975696
4.514532090925925,0.02035412461589823,0.01887319378994875,0.021898702791114263
4.664225552007536,0.020527224930326844,0.019020427381955186,0.022099647281855983
4.814561246884289,0.02070358683081169,0.01917078375725681,0.022303793869132726
4.9396356140913875,0.02085299556356336,0.019298475769173706,0.022476215142459222
5.07444578254611,0.021016624033738364,0.019438679834685377,0.0226644470680662
5.2244616947586096,0.021200787210487584,0.019596941596684087,0.022875531489425796
5.399073994677235,0.0214184289082833,0.019784690386371106,0.023123799440723555
5.574495492867494,0.021638316349738444,0.019975177007787875,0.023373307383414442
5.724508712544685,0.021828226773081227,0.02014045866344727,0.02358754494480707
5.89915248150105,0.022050812494810768,0.02033517574888892,0.02383701351287771
6.074537019394977,0.022273784420003096,0.02053133505081912,0.024085121532531978
6.224548176373929,0.022464662651587336,0.020700305207124934,0.02429583169568455
6.374558808262734,0.022654788467866335,0.020869645647051367,0.02450405150553739
6.524568951279464,0.022843648859675967,0.021038989885868047,0.02470908743189052
6.674578638386096,0.023030715360220114,0.021207957368917292,0.024910232683047526
6.814690014960328,0.023203243884420202,0.02136498513419418,0.02509388101810686
6.9397406291589885,0.02335519545507678,0.021504352721170416,0.025253968333571578
7.074602462329597,0.023516632726718403,0.02165366246041179,0.02542213781744432
7.234500673854416,0.02370392247635794,0.02182862729150562,0.025614577943484016
7.409453421137082,0.023902981101367952,0.022016935444626327,0.02581556774140016
7.574628703771558,0.024084450888803913,0.022191015900893327,0.025995203516793557
7.72463591375024,0.024243345506486574,0.022345730995996235,0.02614911874401343
7.899367063252599,0.0244205168984801,0.022521273035429626,0.02631633243842753
8.099382692526634,0.02461165054412088,0.022714809513337625,0.026490759875364197
8.299397568498572,0.02478924493483245,0.02289963644129376,0.02664577238637129
8.499411744350311,0.02495213147230435,0.02307472640225607,0.026780209221215507
8.699425268372618,0.025099230779915507,0.023239085236892203,0.026893085363815745
8.899438184514796,0.025229570308475523,0.02339176436310145,0.026983612182938394
9.09945053286186,0.02534230111052928,0.023531873279504154,0.027051215111917503
9.299462350050135,0.025436713322169777,0.023658591995927843,0.027095547760546873
9.499473669630333,0.025512249908137396,0.02377118311603878,0.02711650197830886
9.699484522385713,0.025568518263317033,0.023869003288429825,0.027114213532465275
9.899494936611665,0.025605299321034978,0.02395151374387282,0.027089063229218457
10.099504938362077,0.025622553893709016,0.02401828964900508,0.02709064802185176
10.299514551666986,0.025620426061175077,0.024069028030334463,0.02707616075121439
10.499523798725349,0.025599243521757648,0.02410355405700747,0.027039786731183357
10.699532700076205,0.025559514926006527,0.024121825514824835,0.026991307870362132
10.89954127475097,0.02550192431709054,0.02404778608267984,0.026988108798376875
11.099549540409285,0.02542732289981831,0.02393511192293785,0.026964435991707274
11.349008767288884,0.02531094088985644,0.023775808605323034,0.026906736348167114
11.64903429473877,0.025142538130686443,0.023561882726845756,0.02680225588181797
11.899579824514815,0.024981038646975633,0.023366955141342852,0.026689067250918262
12.099586769803338,0.024839161717543926,0.023201075946407513,0.026582807963224497
12.349089035228468,0.024648843362172747,0.02298356358684496,0.026433922498929868
12.649110640673518,0.02440682372718031,0.022711803489201366,0.02623853030409121
12.89961239727768,0.02419735320722296,0.022479085478001884,0.026066419091136682
13.099618315050252,0.02402688431424409,0.022290438496688762,0.02592562351816457
13.349157276772193,0.023813421817418152,0.02205391051007609,0.02575011906652357
13.649175799292792,0.02356120999848354,0.021772305754366963,0.025546310650323603
13.899640283115243,0.023358028405308658,0.021542129335941136,0.025387308431624886
14.099645385611653,0.023202962550283788,0.021362944184155443,0.025271353482748664
14.349216006458331,0.023021685518820847,0.02114736759916633,0.025145091409500876
14.64923206178399,0.022825741529970297,0.02090316121830396,0.02502561522077689
14.89966442575134,0.02268407644915133,0.020714142396202576,0.024958179133505693
15.247950681976906,0.022531874208487516,0.0204802483983391,0.024932680997732083
15.748015748023622,0.022410229155679796,0.020128364228272105,0.02508725923792437
16.24807680927192,0.022433035532019845,0.019850308809279904,0.02548835818173365
16.748134224444225,0.022631701749610888,0.01970213416601066,0.026158697003832457
17.24818831066034,0.023041673291386837,0.01970160724905149,0.027189843834266834
17.74823934929885,0.02370412695550498,0.01986882161713064,0.028607868564801443
18.24828759089466,0.024667633455578358,0.02022741289827706,0.03049564254511494
18.748333259252675,0.025989342477701367,0.020805806608605787,0.03294196862261711
19.248376554920156,0.027734736685802442,0.021638404894230245,0.036027959253980425
19.748417658131498,0.02997404022973358,0.022766478915175914,0.03979580719377618
20.248456731316587,0.03277174700517918,0.024238255599440234,0.04418946170813426
20.74849392124643,0.03616352851094685,0.026107175916810242,0.048963558229069115
21.24852936087578,0.04011329712442362,0.028426439441946567,0.05358836537029265
21.748563170931547,0.044446983830455165,0.031236696435408183,0.05724123540732328
22.24859546128699,0.04877793333274698,0.034542476683091405,0.059010945951812124
22.74862633215465,0.052478265271439145,0.03827324186003996,0.059197566974204495
23.24865587512534,0.05478537275649295,0.04223075965157949,0.05808312960470837
23.748684174075834,0.05508159520963005,0.04604150560545391,0.05804725484614212
24.24871130596428,0.05320824603488292,0.044005937374333816,0.056521950902990496
24.748737341529164,0.049556213866760866,0.03851999080639224,0.054328539084436855
25.248762345905195,0.04484724756062201,0.033481106890860486,0.05191146914269052
25.748786379167466,0.039805382780805976,0.029077574486298642,0.05012975649726443
26.49528259898354,0.03275616958326533,0.02376220204124619,0.04478512044747364
27.248853186877426,0.026740635221281638,0.019567325673888622,0.03821657219411864
27.748873851023216,0.02348015338121983,0.017374496504167433,0.033842839326655036
28.24889378365107,0.020725443569761446,0.015535050020204857,0.029831703277062308
28.7489130229301,0.018405206770966298,0.01398346969771094,0.026287441652040666
29.248931604419333,0.016448773473208764,0.01266622589868366,0.023222570460069845
29.748949561287034,0.014793116028847406,0.011540241919965806,0.020602155257251602
30.24896692450835,0.013384855964021154,0.010571072745948748,0.018372237326199036
30.748983723043597,0.012179986432929387,0.009731207557162759,0.016475430799073862
31.24899998399949,0.011142718617122703,0.008998630437015558,0.014858319523346836
31.74901573277509,0.01024412101172224,0.008355654435017717,0.013474267756411293
32.49615361854384,0.009117411531560387,0.007536033641262275,0.011769295476741447
33.49626844888845,0.007899697874939512,0.006632784910704442,0.009968520983713529
34.49637662132068,0.006938134103702633,0.005903745054183505,0.008585412103418805
35.4964786985977,0.006164002746761252,0.005305229314643421,0.0075003725234341866
36.49657518178932,0.005530060179372125,0.004806539912197704,0.0066325275713054405
37.986839826445156,0.004781200793632241,0.004205964273892193,0.005634419897894542
39.496835316262995,0.004181194523149956,0.0037165098931358016,0.004853603770312529
40.496913462633174,0.0038557795860143206,0.0034470547096467656,0.0044390184394917775
41.49698784249286,0.0035731860085403354,0.0032108568157121014,0.004083751672084839
42.595774438317235,0.003303300696564787,0.0029832895772779356,0.0037486888048450604
43.84518217546827,0.0030380903899531663,0.0027577702514562877,0.0034233775405412277
45.14532090925925,0.0028003994878526284,0.0025540213390767225,0.0031351622604174185
46.64225552007536,0.002566080281599008,0.0023515945741640295,0.0028541953742505077
48.14561246884289,0.0023641052812107973,0.0021759329486654394,0.0026143516089109763
49.39635614091387,0.0022174473843546306,0.0020476524184291274,0.0024416325114224187
50.7444578254611,0.0020774660446960572,0.0019246470268912974,0.0022778817957410102
52.244616947586096,0.0019400080372352635,0.0018033553974680359,0.0021180669544890902
53.99073994677235,0.0018005548592746855,0.0016797888597127495,0.001956941714530402
55.744954928674936,0.0016785342088794278,0.0015712915897006855,0.0018167073338626431
57.245087125446844,0.0015865170517276555,0.0014892374256158989,0.0017114324323355447
58.9915248150105,0.0014914675287136673,0.0014042897760276386,0.0016030890016959097
60.74537019394976,0.001406960732281727,0.0013286330048138764,0.0015070586387089305
62.245481763739285,0.0013423226379549967,0.0012701492577861912,0.001433790680727114
63.745588082627336,0.0012837762749645077,0.0012171090900942928,0.001367545271310545
65.24568951279464,0.0012306087490278974,0.0011689078980815404,0.0013074681621531858
66.74578638386096,0.0011822135064958736,0.0011250148060129403,0.001253192490775326
68.14690014960328,0.0011408514809573092,0.0010874951912747156,0.001207008158797813
69.39740629158989,0.001106775546454691,0.0010564404341751054,0.0011689795868937815
70.74602462329597,0.0010727665509045038,0.001024777190341666,0.001131036439372483
72.34500673854416,0.0010357587727516946,0.0009903025994828128,0.0010899892937662353
74.09453421137081,0.000998978324272863,0.0009560444636031126,0.001049731419371161
75.74628703771559,0.0009674366441799228,0.0009266741607534012,0.0010152198252190024
77.2463591375024,0.0009412349009257028,0.000902286314112705,0.0009865541455172596
78.99367063252599,0.0009133779996854093,0.0008763731578276858,0.0009560736663951398
80.99382692526635,0.0008846212794744381,0.0008496453830643896,0.000924595228570532
82.99397568498571,0.0008588893052686856,0.0008257566793641435,0.0008964050166498024
84.99411744350311,0.000835872250055881,0.0008044192946533784,0.0008711588530296323
86.99425268372619,0.0008153023083395773,0.0007853841720718128,0.0008485601535532244
88.99438184514796,0.0007969469330317473,0.0007684347845796171,0.00082835209866186
90.9945053286186,0.0007806033289500501,0.0007533821025538867,0.0008103112933137003
92.99462350050136,0.0007660939394557023,0.0007400604595880739,0.0007942425959857506
94.99473669630333,0.000753262723951859,0.0007283241355752295,0.0007800743199501154
96.99484522385713,0.0007419720696147753,0.0007180445165175226,0.0007676006837655388
98.99494936611666,0.0007321002151216503,0.0007091077210240904,0.0007566312159935096
100.99504938362078,0.0007235390902659599,0.0007014126067290067,0.000747049857908037
102.99514551666987,0.0007161924953643547,0.0006948690877483898,0.0007387533733236423
104.9952379872535,0.0007099745598047474,0.0006893967081371582,0.0007316496709149209
106.99532700076205,0.0007048084310972381,0.0006849059075915954,0.0007256563796106607
108.9954127475097,0.0007006251551881043,0.0006811955100506706,0.000720699633585622
110.99549540409286,0.0006973627162058849,0.0006783711972241081,0.0007183108755813256
113.49008767288886,0.0006945367305248769,0.0006756138879782318,0.0007170068620903241
116.4903429473877,0.0006927399880344237,0.0006718220883780633,0.0007171991830959533
118.99579824514814,0.0006924805528460097,0.0006698938945429741,0.0007186120072264472
120.9958676980334,0.0006930828376446771,0.0006691551614459285,0.0007205634842563923
123.4908903522847,0.0006947852699855454,0.0006691720059368669,0.0007239677632523013
126.49110640673517,0.000698054000028134,0.0006704031377264331,0.0007293009947294523
128.9961239727768,0.0007017420993557327,0.0006723793211513333,0.000734728861411947
130.99618315050253,0.0007053312518301353,0.000674588317860728,0.0007397237465095423
133.49157276772192,0.000710575336814084,0.0006780930573062629,0.0007467426283815236
136.49175799292792,0.0007178569087466265,0.0006832671216480562,0.000756178123961453
138.99640283115244,0.0007247104100118398,0.0006883469556992902,0.000764846426401922
140.99645385611655,0.0007307184353326267,0.000692923678093964,0.0007723198131784749
143.49216006458332,0.0007388567773117735,0.0006992574360857863,0.0007823060028919711
146.4923206178399,0.0007494487717126284,0.0007076630720858515,0.000795136125506728
148.9966442575134,0.0007589359653897075,0.0007153114643062499,0.0008065041689720669
152.47950681976906,0.0007733153154339315,0.0007270890561954103,0.0008235398297883185
157.48015748023622,0.0007956305972874477,0.000745646508893216,0.0008496782042961275
162.48076809271922,0.0008200190106144313,0.000766237699141261,0.0008779048814356068
167.48134224444226,0.0008463181755554471,0.0007887190369879793,0.0009080394352967246
172.4818831066034,0.0008743674116481198,0.0008129546074999091,0.0009403781144851714
177.48239349298848,0.0009040019753152009,0.0008386794751102147,0.0009741882886880768
182.4828759089466,0.0009350478232944792,0.0008655452434535599,0.0010092447961104548
187.48333259252675,0.0009673168624695331,0.0008937676430823549,0.0010452991792804878
192.48376554920156,0.001000602715331438,0.000923191620652979,0.0010820757019072197
197.48417658131498,0.0010346770932063306,0.0009536484572257209,0.001119268449783286
202.48456731316588,0.0010692869262719847,0.0009849525125412426,0.0011565397938626046
207.4849392124643,0.0011041524478739443,0.0010168984767604898,0.0011935205280774288
212.4852936087578,0.0011389664662777416,0.0010492592604463803,0.0012298119967990514
217.48563170931544,0.0011733950735513105,0.0010817846865370103,0.0012649904867914014
222.48595461286988,0.0012070800315089128,0.0011142011707369938,0.0012986140672847715
227.48626332154652,0.0012396430313666128,0.0011462125844586076,0.0013302319149969433
232.4865587512534,0.001270691941500285,0.001177502481990888,0.0013593959616790064
237.48684174075834,0.001299829034718151,0.00120773783602461,0.0013856744633668095
242.4871130596428,0.001326661026828666,0.001236574359526021,0.0014086668377114222
247.48737341529164,0.0013508105734802726,0.001263663396490875,0.0014280188833593957
252.48762345905195,0.0013719286815935027,0.0012886602427137955,0.0014434373238169066
257.48786379167467,0.0013897073210853417,0.001311233618867838,0.0014547025462395662
264.9528259898354,0.0014090903148114074,0.0013394946296202037,0.0014629985299584457
272.48853186877426,0.0014207806190143796,0.0013615164644204258,0.0014626678762609054
277.48873851023217,0.0014233219717772435,0.0013717081885525836,0.0014568598477769964
282.4889378365107,0.0014219478678498508,0.0013783713822639505,0.0014471096916916153
287.489130229301,0.0014167690367720964,0.0013814532992709693,0.0014353036759710129
292.4893160441933,0.0014079668615282382,0.0013809675719726204,0.0014252603366948482
297.4894956128703,0.0013957848822091776,0.0013680450363283926,0.0014130002437538162
