Frequency,Nominal,Min,Max
2.45,0.14687777233986168,0.10818137296339347,0.1823352339428882
2.5,0.1527200160680054,0.1124148662835389,0.18966145437916487
2.55,0.1586625643509953,0.11671522215138473,0.1971196482250462
2.6,0.16470432404381136,0.12108130749864307,0.20470881069854743
2.7,0.1770809831878159,0.1300060170614645,0.22027590233835145
2.75,0.18341357409114037,0.13456225779330516,0.2282517012374957
2.8,0.18984075906757047,0.13917946101268905,0.23635420779983018
2.85,0.1963613219918573,0.14385637623146058,0.2445822952503325
2.9,0.202974021788151,0.1485917294562038,0.2529348117675824
2.95,0.20967759231699884,0.1533842231918443,0.2614105802665221
3,0.2164707422651138,0.15823253645047997,0.27000839818122174
3.05,0.2233521550381769,0.1631353247655559,0.2787270372477049
3.1,0.2303204886570236,0.16809122021181155,0.2875652432874052
3.15,0.2373743756574825,0.17309883143112298,0.2965217359912665
3.2,0.24451242299423454,0.17815674366477627,0.30559520870488377
3.3,0.25903529804304315,0.1884176953765419,0.3240877345378198
3.4,0.27387745444603767,0.19886229091267577,0.34303183257533015
3.5,0.2890268181817284,0.20947837465351904,0.3624160796175946
3.6,0.30447089838846575,0.22025342211087556,0.38222861097187777
3.7,0.3201967855999347,0.23117454278593147,0.40245711416457325
3.9,0.3524402428360628,0.25340163301073637,0.4441105114462512
4,0.368929891780301,0.26468002564551285,0.46550848911862863
4.1,0.3856455057327591,0.2760493478469552,0.4872685955598444
4.2,0.40257207368370884,0.2874949438220287,0.50937619623748
4.32,0.42314066166962705,0.3013092100190611,0.5363426971324997
4.45,0.44570914598192035,0.31634345027919863,0.5660651242001031
4.58,0.4685397868367065,0.3314155051427018,0.5962818113767077
4.75,0.49872879913218504,0.35112307506141477,0.6364798461943043
4.88,0.5220206269136505,0.3661456939455649,0.6676932898101186
5,0.5436414242795415,0.37994032197223127,0.6968317595720623
5.15,0.5707801367957414,0.39703915804615786,0.7336438343897842
5.3,0.5979840264056298,0.4139220271887723,0.7708263363864842
5.5,0.6342429966515357,0.43599204239310185,0.8208606146679771
5.65,0.6613396368151246,0.45213459006889556,0.8586373650009707
5.8,0.68827553218753,0.46785667785160756,0.8965476572331412
6,0.7238175302664305,0.4880570000443275,0.9471712844403802
6.15,0.7501012736207059,0.5025537089693441,0.9850953695606658
6.3,0.7759844607215249,0.516420173946764,1.0228933232678212
6.45,0.8013934693164436,0.5295935352311959,1.0604836090613192
6.6,0.8262543079218001,0.5420113737941211,1.0977833661905003
6.75,0.8504928748672487,0.5536119582950412,1.134708649765528
6.88,0.8709391277456937,0.5629577167000289,1.1663421542844032
7,0.8893070529602418,0.5709655867728267,1.1951881620493299
7.15,0.911526174917875,0.5800930621174091,1.2306991832911487
7.32,0.9356278327112101,0.589185202900166,1.270110000548624
7.5,0.9597868584494867,0.5972767155179841,1.3107399412527103
7.65,0.9787666813814334,0.6027493274970346,1.343631891401954
7.8,0.9966278905088222,0.6070143419105103,1.3755572133325222
8,1.0185931818031073,0.6107427276008738,1.4164813459159435
8.2,1.038314369171767,0.6121408868048984,1.45535855899346
8.4,1.0556595520129535,0.6111187540368764,1.4920127922261939
8.6,1.0705091169475014,0.6075984362770488,1.5262790566104671
8.8,1.0827572206521916,0.6015151727959055,1.5580054708031756
9,1.0923131882253236,0.5928181902414321,1.5870552691011717
9.2,1.0991027983365207,0.5814714360165301,1.613308740587665
9.4,1.1030694276143167,0.5674541750884173,1.63666505767314
9.6,1.104175028933267,0.5507614380244369,1.657043952419447
9.8,1.1024009214456405,0.5314043111546257,1.6743872007641833
10,1.097748374272681,0.5094100632146852,1.6886598780992186
10.2,1.0902389705859614,0.48482210649352536,1.6998513545459857
10.4,1.0799147441836323,0.4576997942587469,1.7079760045579593
10.6,1.0668380863757156,0.42811805991382906,1.7130736129206172
10.8,1.0510914267912201,0.3961669068130391,1.7152094674835805
11,1.0327766973572492,0.36195076079259403,1.71447413766169
11.2,1.012014593933476,0.3255877001613586,1.7109829464613866
11.5,0.9765902802141835,0.2673071480922616,1.7008898296634958
11.8,0.9365120069355006,0.19336923763971275,1.6854797148147842
12,0.9075072039434591,0.13918199984133492,1.6725793482270772
12.2,0.8769026513660022,0.08337429866388356,1.6633664293416754
12.5,0.8284567716940584,-0.0123096292728967,1.6557614965208298
12.8,0.7776309931531722,-0.11392986337716263,1.6459708368889128
13,0.7428115525863467,-0.18270052984406399,1.6386062372441959
13.2,0.7075229956771143,-0.25198591498388995,1.6308505091028427
13.5,0.6542459813532958,-0.3563121256879086,1.6191752130526114
13.8,0.6013001113246152,-0.46034902224232227,1.6207712515534376
14,0.5666029032939625,-0.5291281805098808,1.6226902488760595
14.2,0.5326770294786936,-0.5971586683497364,1.6255748610174328
14.5,0.4837775229346082,-0.6972801616703374,1.6322483213645114
14.8,0.4380017512004033,-0.7944014845342926,1.6424780221061885
15,0.4096228875974528,-0.8571116418137292,1.6516848539321614
15.5,0.34787587777176804,-1.0052129941340968,1.6848345151008448
16,0.3020981269624691,-1.138434091786924,1.7354072375904384
16.5,0.2756222415195204,-1.2538836211174407,1.8068373784349265
17,0.27148955743420494,-1.348923896530764,1.9020770384984784
17.5,0.2923605171983725,-1.4211703905749038,2.0232879113085205
18,0.3403713511291884,-1.4685061726744788,2.171362739593812
18.5,0.41689969470274063,-1.489123661968386,2.345177056868227
19,0.5221858276961051,-1.481610154195498,2.5404404785021746
19.5,0.6547355200663647,-1.4451001479714176,2.7480099598738605
20,0.810409931523163,-1.3795271764299988,2.951616896139214
20.5,0.9811055064663488,-1.2860206634450004,3.1252990478267098
21,1.1529892085113655,-1.1675072201804686,3.231630741014811
21.5,1.3044783154742658,-1.0295831490692664,3.223091146424381
22,1.4046758485006958,-0.8817054458009517,3.1205564158536623
22.5,1.4138153766955928,-0.7386585245853393,2.925735681846891
23,1.2879001378052104,-0.6220201416007407,2.6870575493658313
23.5,0.9886625767460511,-0.724830951128552,2.462384291268672
24,0.4960263321490247,-1.6763833656284457,2.0268629996070757
24.5,-0.18402953411475081,-2.728511473676552,1.5192595905902708
25,-1.0219178574298862,-3.8354072868548705,0.9790535749758225
25.5,-1.9753346021307172,-4.962043740313699,0.4984020307070989
26,-3.0012721179829143,-6.084492611260578,-0.1482024452962333
27,-5.135714481148286,-8.263313474595602,-1.827237370764446
27.5,-6.199485161622224,-9.306718928428957,-2.7876706455612443
28,-7.24366548251512,-10.316284678705133,-3.785215520544059
28.5,-8.26175339254399,-11.291908389662836,-4.795917931440151
29,-9.250433612405265,-12.234420837187923,-5.802970661157745
29.5,-10.208429378716993,-13.145161015962346,-6.7953713480094
30,-11.135721973682418,-14.025714640236346,-7.766396002286644
30.5,-12.033038681026476,-14.87775629808012,-8.7122891400982
31,-12.901524494502404,-15.702956514778668,-9.631271338121039
31.5,-13.742535331779273,-16.50292910123118,-10.522835970901777
32,-14.557510031621803,-17.27920329661565,-11.38727010611552
33,-16.115087947053908,-18.766283104301056,-13.038064040795653
34,-17.58519327014707,-20.174451010470055,-14.592209837499105
35,-18.977581070910624,-21.512455056788177,-16.05931621399843
36,-20.300709241232862,-22.78772676360753,-17.44855061391979
37,-21.561834072259003,-24.006589095721843,-18.76814029425033
39,-23.922039926807656,-26.29593758377297,-21.22620453163309
40,-25.031041494780265,-27.37508055162978,-22.376290422132495
41,-26.098147973440895,-28.41536577685701,-23.480192018179867
42,-27.126820822505415,-29.419849174612885,-24.541946466943333
43.2,-28.314737104756208,-30.58173598892244,-25.765339663819557
44.5,-29.549367722740783,-31.791328375017876,-27.03396805085893
45.8,-30.734471081892917,-32.95418852394549,-28.249162142485677
47.5,-32.21656083583498,-34.41073258587322,-29.765674475494524
48.8,-33.30282960385241,-35.47975721981555,-30.875095102019323
50,-34.27234401441121,-36.43485985562219,-31.863905585848293
51.5,-35.442814753358995,-37.5890793060792,-33.056077008084706
53,-36.57074612056545,-38.70245737232275,-34.203389302853175
55,-38.01411979041938,-40.12867117269576,-35.66955225758861
56.5,-39.05494162239742,-41.158063087381365,-36.72551675468666
58,-40.06279551959246,-42.155549329111736,-37.747081320946464
60,-41.359110352146054,-43.43947367709588,-39.059752514383554
61.5,-42.29826070801182,-44.3702680702087,-40.00991638966036
63,-43.21099276772518,-45.27534753998729,-40.93272385303593
64.5,-44.098875682321115,-46.156205128351985,-41.82984788310048
66,-44.96333658307197,-47.014202187666776,-42.7028050412781
67.5,-45.80567781416719,-47.85058394409315,-43.55297507727025
68.8,-46.51873860002179,-48.55884915824405,-44.27233318285853
70,-47.16361856372079,-49.19958057600813,-44.922659508978256
71.5,-47.952542198896644,-49.98366255010224,-45.717938545301166
73.2,-48.824705472611996,-50.850759431343484,-46.5967520653663
75,-49.72411340057626,-51.745242398312485,-47.50262558397676
76.5,-50.45570147975085,-52.473038535006395,-48.23919333711369
78,-51.17179361959848,-53.18559705497239,-48.95992785218566
80,-52.10366437885519,-54.11312176188156,-49.897512032395724
82,-53.01071780508987,-55.01620643829049,-50.809787773854055
84,-53.894333819399606,-55.89619238515745,-51.698185930997866
86,-54.755777582729465,-56.75431102496287,-52.56401601488427
88,-55.596212179323146,-57.59169582777944,-53.408479906470056
90,-56.41670955280921,-58.409392622329655,-54.23268363949472
92,-57.218259979978676,-59.208368550878376,-55.03764757477667
94,-58.001780313872956,-59.989519879105345,-55.824315226140456
96,-58.768121185604684,-60.75367883427199,-56.593560949815256
98,-59.51807332077102,-61.5016196147826,-57.346196670858596
100,-60.25237309944173,-62.23406368995087,-58.08297778964537
102,-60.971707467040225,-62.9516844891334,-58.8046083869789
104,-61.67671828586823,-63.655111563401825,-59.51174582661169
106,-62.36800620269733,-64.34493428984274,-60.205004837906415
108,-63.04613409610017,-65.02170517781057,-60.88496114825054
110,-63.711630157510164,-65.68594282756186,-61.552154724065396
112,-64.36499065197484,-66.33813458430812,-62.20709267035911
115,-65.3232908730568,-67.2948317271902,-63.167555687140904
118,-66.25679286073252,-68.22688761143073,-64.10300366918052
120,-66.86601700673474,-68.8352229009708,-64.71341864580849
122,-67.46518673276388,-69.43355600886336,-65.31370306174037
125,-68.34584766375373,-70.3130457747819,-66.19590916231972
128,-69.2057668961005,-71.171875625832,-67.05724191561087
130,-69.76802693530394,-71.73344474272128,-67.6203820511682
132,-70.32180100570429,-72.28654923388149,-68.17499372825024
135,-71.13712916561548,-73.10090023390435,-68.99151189332574
138,-71.93480047782944,-73.8976095688817,-69.79031126819733
140,-72.45715854760057,-74.41932504408837,-70.3133966514737
142,-72.97223194166303,-74.93374798100524,-70.82918428127817
145,-73.73162901661598,-75.6921416476495,-71.58964070736036
148,-74.47574380310574,-76.43520166200447,-72.33481764167571
150,-74.96362884909746,-76.9223447341153,-72.82342196119285
155,-76.15587327221421,-78.11255217653195,-74.01754645219128
160,-77.31074760567982,-79.26504690027191,-75.17449311819095
165,-78.43034289132102,-80.38181159060103,-76.29645070561166
170,-79.51648555565876,-81.46455779480816,-77.38534839956218
175,-80.5707623517315,-82.51475069799534,-78.44288142019244
180,-81.59454160804573,-83.5336306507501,-79.47053259317246
185,-82.58899165285321,-84.52223237950363,-80.46959072653198
190,-83.55509716448269,-85.48140269881989,-81.44116649656935
195,-84.49367411029286,-86.41181745445888,-82.38620644985922
200,-85.40538386725521,-87.3139983438873,-83.30550565700923
205,-86.29074705682505,-88.18833017531405,-84.1997194989027
210,-87.15015756707076,-89.03507902694645,-85.06937502092552
215,-87.98389716819501,-89.85441164650872,-85.91488224894445
220,-88.79215104674829,-90.64641628154303,-86.7365458168466
225,-89.57502448367953,-91.41112495225657,-87.53457720399639
230,-90.33256077891294,-92.14853697491532,-88.3091078174526
235,-91.06476038071608,-92.85864332583586,-89.06020307480435
240,-91.77160101629482,-93.54145122146123,-89.78787754736794
245,-92.45305845015297,-94.19700810195388,-90.49211111100492
250,-93.10912733281141,-94.82542407016426,-91.17286592676228
255,-93.73984146213843,-95.42689177932623,-91.83010394304836
260,-94.34529268196,-96.00170279957362,-92.46380448553529
270,-95.48116138638662,-97.07308277587552,-93.66069908372677
275,-96.01218787517708,-97.57081255055411,-94.22408689745211
280,-96.51918567952906,-98.04420573931367,-94.76435109700458
285,-97.00271989050799,-98.49412743771843,-95.28178397350504
290,-97.46345950180691,-98.9215388086277,-95.77676965029305
295,-97.90217081866308,-99.32748165787119,-96.24978635068176
300,-98.31970739007181,-99.71306087425134,-96.70140510136312
