Frequency,Nominal,Min,Max
2.45,5.510433253368105e-7,5.44280007740623e-7,5.579379086166705e-7
2.5,5.533319013487439e-7,5.463178873829479e-7,5.604788376298183e-7
2.55,5.556614604248303e-7,5.4839268218021e-7,5.630645965361326e-7
2.6,5.580317559167307e-7,5.505041870542892e-7,5.656948866579335e-7
2.7,5.628935720178906e-7,5.548365066603812e-7,5.710878712107602e-7
2.75,5.65384602262548e-7,5.570569115644746e-7,5.738499742053329e-7
2.8,5.679153884910437e-7,5.593132071382696e-7,5.76655425884074e-7
2.85,5.704856878787216e-7,5.616051893780032e-7,5.795039345130119e-7
2.9,5.730952587883365e-7,5.639326548522176e-7,5.823952102264186e-7
2.95,5.757438608954927e-7,5.66295400810387e-7,5.853289651648649e-7
3,5.784312553074663e-7,5.686932252869705e-7,5.883049136041041e-7
3.05,5.81157204675453e-7,5.711259272008713e-7,5.913227720749082e-7
3.1,5.839214733002818e-7,5.735933064503083e-7,5.943822594739879e-7
3.15,5.867238272316598e-7,5.76095164003095e-7,5.974830971661565e-7
3.2,5.89564034361024e-7,5.786313019823522e-7,6.006250090779007e-7
3.3,5.953570895011253e-7,5.838056339717814e-7,6.070309645772185e-7
3.4,6.012988218206947e-7,5.891147454815746e-7,6.135979716500144e-7
3.5,6.073874487896089e-7,5.945571027890763e-7,6.203239215765116e-7
3.6,6.136212241535073e-7,6.001311973471359e-7,6.272067528412238e-7
3.7,6.1999843948199e-7,6.058355474747581e-7,6.342444522822901e-7
3.9,6.331765523682578e-7,6.176292303764613e-7,6.487766487987561e-7
4,6.399742314971851e-7,6.237157457549249e-7,6.562673659737785e-7
4.1,6.469089146443924e-7,6.299268835741978e-7,6.639053911818352e-7
4.2,6.539790945902599e-7,6.362613131338045e-7,6.716889567261148e-7
4.32,6.626401043381871e-7,6.440235473351504e-7,6.812189300200222e-7
4.45,6.722378183535487e-7,6.526283443798538e-7,6.917734356311202e-7
4.58,6.820561477895099e-7,6.614340625626419e-7,7.025640735201077e-7
4.75,6.952235635536454e-7,6.732480879413687e-7,7.170255266921297e-7
4.88,7.055400952407258e-7,6.82507705270391e-7,7.283482251790876e-7
5,7.152507466468173e-7,6.912261031030021e-7,7.389999483367649e-7
5.15,7.276393002626555e-7,7.023521892870832e-7,7.525808487671099e-7
5.3,7.40302358202863e-7,7.137285160720454e-7,7.664533441891944e-7
5.5,7.576071650972594e-7,7.29280548610021e-7,7.853960421511004e-7
5.65,7.708968149967707e-7,7.412282029296547e-7,7.999321387711177e-7
5.8,7.844493808261463e-7,7.534156293521153e-7,8.14745793220419e-7
6,8.02922963888045e-7,7.700335475468347e-7,8.349223551411942e-7
6.15,8.170768316070228e-7,7.827694283373146e-7,8.503686798116207e-7
6.3,8.314834762357271e-7,7.95735894177952e-7,8.66080056880638e-7
6.45,8.461401131645753e-7,8.089304078222934e-7,8.820530303789148e-7
6.6,8.610440753855377e-7,8.223505262627347e-7,8.982842928804007e-7
6.75,8.761928165944447e-7,8.35993898808191e-7,9.147706985201123e-7
6.88,8.895178508294062e-7,8.479969944455048e-7,9.292630008022389e-7
7,9.019781602561618e-7,8.592228801472099e-7,9.4280705719768e-7
7.15,9.177681868328404e-7,8.734508074621066e-7,9.599598944837015e-7
7.32,9.359494699269905e-7,8.89836125219265e-7,9.799054944657093e-7
7.5,9.55528500905105e-7,9.074838408371774e-7,0.0000010013908835712694
7.65,9.72100291671627e-7,9.224226966663528e-7,0.0000010195780087352477
7.8,9.889032682676001e-7,9.372974712684372e-7,0.000001038042240021564
8,0.0000010116649546989196,9.57278253889567e-7,0.0000010634171322293178
8.2,0.00000103483379348056,9.775765085978385e-7,0.0000010894884064735786
8.4,0.0000010584089332527726,9.981904111498523e-7,0.0000011160757676207338
8.6,0.0000010823907002492476,0.0000010191192894261712,0.00000114317808306986
8.8,0.000001106780761438892,0.0000010403637343309427,0.0000011707984846905854
9,0.0000011315822960227602,0.0000010619257111559578,0.0000011989416516784972
9.2,0.000001156800172244649,0.000001083808669243631,0.0000012276140641881333
9.4,0.0000011824411262471161,0.0000011060176478160106,0.0000012568242710575769
9.6,0.0000012085139396070588,0.0000011285593759566068,0.000001286583167020092
9.8,0.0000012350296122311306,0.0000011514423649366927,0.0000013169042744103823
10,0.0000012620015274880694,0.000001174676991361338,0.0000013478040242046294
10.2,0.0000012894456068005073,0.0000011982755699617473,0.0000013793020313127812
10.4,0.0000013173804514017731,0.0000012222524152646948,0.0000014114213593818194
10.6,0.000001345827469563506,0.0000012466238918090613,0.0000014441887709660947
10.8,0.0000013748109882897734,0.000001271408453034148,0.000001477634959753154
11,0.000001404358349219439,0.0000012966266694142257,0.0000015117947625617143
11.2,0.000001434499989243936,0.0000013223012468395692,0.0000015467073499990894
11.5,0.0000014809010979973632,0.000001361723739768011,0.0000016005845074293972
11.8,0.0000015288426979322843,0.0000014023224011681447,0.0000016564219554463282
12,0.0000015617298236143563,0.0000014300924146682788,0.0000016948295973911333
12.2,0.0000015954118065655013,0.0000014584645101241235,0.0000017342561833044754
12.5,0.000001647535627254132,0.0000015022299476373231,0.0000017954570886724717
12.8,0.0000017017448418131532,0.0000015475596804692225,0.0000018593573728050346
13,0.0000017391414657551203,0.0000015787172408777102,0.0000019035941247671166
13.2,0.0000017776180387127894,0.0000016106762607486426,0.0000019492440988691795
13.5,0.000001837507088913638,0.0000016602197724776907,0.0000020205796605648343
13.8,0.0000019002243458367105,0.000001711838152460004,0.0000020956598218260074
14,0.0000019437372416179868,0.000001747490833823978,0.000002147980136307187
14.2,0.000001988708562931345,0.0000017842009369493088,0.0000022022543300974518
14.5,0.000002059094940163359,0.0000018413780876668287,0.0000022876119315897112
14.8,0.000002133282032925225,0.0000019012777155311113,0.0000023781216300064604
15,0.0000021850210252355922,0.000001942834144936029,0.000002441572092961843
15.5,0.000002323160423538049,0.0000020529315475321006,0.0000026122766902969527
16,0.0000024753945669107332,0.000002172882248641634,0.0000028025028180582154
16.5,0.0000026438779742616385,0.000002304061355216754,0.000003015424651874714
17,0.0000028310745660100684,0.00000244803442338206,0.00000325462397546951
17.5,0.0000030397848909233952,0.000002606586770733839,0.000003524037454131141
18,0.0000032731474547587196,0.000002781751746948755,0.000003827770582988333
18.5,0.0000035345830403860623,0.0000029758321189872277,0.000004169653271606535
19,0.000003827626144652288,0.0000031914037464310325,0.000004552327204181632
19.5,0.000004155547013465157,0.000003431282046526443,0.0000049755499130831525
20,0.000004520607241493589,0.0000036984171046125647,0.0000054333474897841415
20.5,0.000004922719280981939,0.000003995659654000382,0.000005909881216546167
21,0.000005357243669375444,0.000004325304784522525,0.000006375054271753705
21.5,0.0000058118043397801484,0.000004687743164187186,0.000006782522868198167
22,0.0000062626359655083315,0.000005081710974769056,0.000007184173411135236
22.5,0.000006672416409742858,0.000005500657489420786,0.000007470582456357162
23,0.000006993320552007546,0.000005930577026356478,0.000007628602192997238
23.5,0.000007178628291824414,0.00000634748086549668,0.00000789256872042741
24,0.000007200327717476075,0.000006516712372505172,0.000007963509589948264
24.5,0.000007061798930116911,0.000006185673880585712,0.000007835383165308795
25,0.0000067953538343809796,0.000005775243691615789,0.000007543221614177013
25.5,0.000006447046835109737,0.000005374851679251197,0.000007317234651058277
26,0.000006060606945793635,0.0000050001040294431896,0.000007051066784328836
27,0.000005291957786525776,0.000004348701628326455,0.000006478200888522162
27.5,0.0000049409400940424045,0.000004071852025000222,0.0000061167096784972795
28,0.00000461995514360421,0.000003824328845048911,0.000005746504846657372
28.5,0.000004329449153341241,0.000003602987882881029,0.000005386594876552026
29,0.000004067868036523625,0.000003404720960241555,0.0000050477137474016156
29.5,0.00000383275631045714,0.0000032266567714270198,0.0000047347855243873655
30,0.000003621376466949813,0.000003066235467545196,0.000004449105847915798
30.5,0.0000034310334827680657,0.000002921219110950045,0.0000041899168077103455
31,0.000003259228768346581,0.000002789672019764805,0.000003955423777906111
31.5,0.00000310372003719743,0.000002669929006345938,0.0000037434045190351036
32,0.0000029625317837348525,0.00000256056066306728,0.0000035515516808528343
33,0.0000027164559209103084,0.0000023682127785466213,0.0000032196706419309675
34,0.000002509806248207548,0.0000022047293942606447,0.0000029443658841633385
35,0.0000023342044964804763,0.000002064221439551642,0.000002713466214488948
36,0.000002183356100815205,0.0000019422447291747177,0.0000025176499612571805
37,0.0000020524881257140202,0.0000018354009755774256,0.000002349827019949629
39,0.0000018368704035229273,0.0000016571475617528465,0.0000020777651082585275
40,0.000001747047502117422,0.0000015820315007794249,0.0000019661285235885265
41,0.0000016666981530868677,0.0000015143918492565928,0.0000018671360859808858
42,0.000001594398357408526,0.0000014531599906321744,0.0000017787711735432613
43.2,0.0000015166527813592882,0.0000013869187251884463,0.0000016845068687418031
44.5,0.0000014417883841935664,0.0000013227365108376482,0.0000015944799227090214
45.8,0.0000013750929405701512,0.000001265225943396499,0.0000015148919000539
47.5,0.0000012981078919884636,0.000001198449897042262,0.0000014237446499346114
48.8,0.0000012457971681173413,0.000001152834227351503,0.0000013622484582256302
50,0.0000012017949109299228,0.0000011143116123788277,0.0000013107918821566496
51.5,0.0000011517879391446628,0.000001070363401082765,0.0000012526127382690555
53,0.0000011065770508981373,0.0000010304761612934132,0.0000012002847465136744
55,0.0000010526238429325161,9.826858032651401e-7,0.0000011381706262443626
56.5,0.0000010162170871399882,9.503217740137194e-7,0.0000010964581737870446
58,9.828066110046838e-7,9.205401536720276e-7,0.0000010583188111589009
60,9.423094975026679e-7,8.843390064951955e-7,0.0000010122662704989541
61.5,9.145921933843487e-7,8.594982739230522e-7,9.808559571671374e-7
63,8.888757675330073e-7,8.364053681590689e-7,9.517908465488154e-7
64.5,8.649505241661533e-7,8.148824359694917e-7,9.248159978875269e-7
66,8.426354519166355e-7,7.947752738899665e-7,8.997125614950399e-7
67.5,8.217734502182224e-7,7.759494933236234e-7,8.762915816356268e-7
68.8,8.04762046070353e-7,7.605789717267239e-7,8.572269791941769e-7
70,7.898680329423045e-7,7.471075489192051e-7,8.405594842159879e-7
71.5,7.722557348441649e-7,7.31160955978516e-7,8.208785011081532e-7
73.2,7.535314666875333e-7,7.141884783887481e-7,7.99987943133641e-7
75,7.350051270426848e-7,6.973767137742462e-7,7.793507154080123e-7
76.5,7.20495707508661e-7,6.84197594213706e-7,7.63209983294917e-7
78,7.067601761103851e-7,6.717116507130452e-7,7.479473255475672e-7
80,6.895485053775538e-7,6.560529522167936e-7,7.288448608981908e-7
82,6.734838568262454e-7,6.414254858511971e-7,7.110374621593627e-7
84,6.584578426403667e-7,6.277335781942096e-7,6.943998058042437e-7
86,6.443754302094563e-7,6.148931043964824e-7,6.788224059727099e-7
88,6.311529236499648e-7,6.028297771653207e-7,6.642091626225673e-7
90,6.187163031457896e-7,5.91477733497913e-7,6.504753540952498e-7
92,6.069998499921067e-7,5.807783601798327e-7,6.375459826549767e-7
94,5.959450013920254e-7,5.706793120743647e-7,6.253544024600763e-7
96,5.854993912550559e-7,5.611336870945262e-7,6.138411751021763e-7
98,5.756160425318415e-7,5.52099329294487e-7,6.029531097130599e-7
100,5.662526837442159e-7,5.435382373318445e-7,5.926424536927621e-7
102,5.573711678779865e-7,5.354160600668791e-7,5.828662070762566e-7
104,5.489369760953236e-7,5.277016645947216e-7,5.735855389523187e-7
106,5.409187920867322e-7,5.203667647844644e-7,5.64765288559245e-7
108,5.332881355364798e-7,5.133856005995651e-7,5.563735369903423e-7
110,5.260190452824816e-7,5.067346602269399e-7,5.483812380575529e-7
112,5.190878044344008e-7,5.003924384468849e-7,5.40761898941822e-7
115,5.092774122014929e-7,4.914152838518485e-7,5.29979778129574e-7
118,5.001128555664253e-7,4.830288842516397e-7,5.199094348520441e-7
120,4.943329588038693e-7,4.777397637963191e-7,5.135590835244335e-7
122,4.887985873928828e-7,4.7267540072214886e-7,5.074789688267017e-7
125,4.809262806640061e-7,4.6547190284556373e-7,4.988310132185987e-7
128,4.73530323446347e-7,4.587046867046454e-7,4.907068257910632e-7
130,4.6884473431368073e-7,4.5441769056588053e-7,4.855600258970174e-7
132,4.6434268451083354e-7,4.502988506337855e-7,4.806148819673592e-7
135,4.5791232809245664e-7,4.444162875429135e-7,4.73551641956793e-7
138,4.518423277137777e-7,4.388639284698239e-7,4.668841163826864e-7
140,4.479821460093401e-7,4.353332417361808e-7,4.6264383890051944e-7
142,4.442623342102571e-7,4.3193118224648116e-7,4.5855764898553463e-7
145,4.3893058901011976e-7,4.2705531354933994e-7,4.5270053997912283e-7
148,4.3387715655499285e-7,4.2243444933632893e-7,4.4714888186420225e-7
150,4.3065294118269943e-7,4.1948647854114335e-7,4.4360662125319235e-7
155,4.230599160057078e-7,4.125448045369598e-7,4.352640366423433e-7
160,4.1607493720598524e-7,4.0615998645911714e-7,4.275887774162751e-7
165,4.0963197699266466e-7,4.002713818061048e-7,4.205084623154201e-7
170,4.036738219508566e-7,3.9482643140895033e-7,4.1396040977032595e-7
175,3.981506704682808e-7,3.8977937968265774e-7,4.0789008259277643e-7
180,3.9301898963720356e-7,3.850902298682704e-7,4.022498232700068e-7
185,3.8824057703781575e-7,3.807238852513e-7,3.9699781805374953e-7
190,3.837817856286808e-7,3.766494387489495e-7,3.920972427060493e-7
195,3.7961287948272975e-7,3.728395817483345e-7,3.8751555361129577e-7
200,3.7570749523827e-7,3.692701094599575e-7,3.832238960680238e-7
205,3.720421895308417e-7,3.659195048932318e-7,3.791966076872465e-7
210,3.6859605679192895e-7,3.6276858726751055e-7,3.75410799477447e-7
215,3.6535040497266737e-7,3.5980021353267113e-7,3.7184600076869784e-7
220,3.6228847921217676e-7,3.569990238980508e-7,3.6848385689287875e-7
225,3.593952253943828e-7,3.543512240113808e-7,3.653078706924726e-7
230,3.566570870519511e-7,3.518443978040841e-7,3.623031806231025e-7
235,3.5406183027628373e-7,3.4946734611068796e-7,3.5945636955317146e-7
240,3.5159839224960615e-7,3.4720994704184334e-7,3.5675529942865703e-7
245,3.4925674978284564e-7,3.450630347907997e-7,3.541889678233238e-7
250,3.4702780486216776e-7,3.430182941189191e-7,3.517473830806569e-7
255,3.4490328470911007e-7,3.410681682251902e-7,3.4942145530908454e-7
260,3.4287565426840703e-7,3.392057780795614e-7,3.472029009438043e-7
270,3.390841591084776e-7,3.357196611349862e-7,3.430583171084433e-7
275,3.373082661368474e-7,3.340849691282567e-7,3.4111904685474625e-7
280,3.3560509390850267e-7,3.3251597874502195e-7,3.392605460739318e-7
285,3.339698098734608e-7,3.310082912407944e-7,3.374774872555288e-7
290,3.323979739145372e-7,3.2955786744597067e-7,3.3576497269475577e-7
295,3.3088550134541395e-7,3.2816099380909953e-7,3.341184942348077e-7
300,3.294286299066035e-7,3.2681425203063503e-7,3.3253389708243084e-7
