Frequency,Nominal,Min,Max
2.45,0.017877464499705273,0.01898438970001796,0.016792950932477287
2.5,0.017889030251273388,0.018998065326091204,0.01680260255799026
2.55,0.017900822271265607,0.01901200685829169,0.016812443900904778
2.6,0.01791284003965217,0.019026213558221584,0.016822474595068772
2.7,0.0179375506514795,0.019055419376530283,0.016843102511126577
2.75,0.01795024236351273,0.019070416884959893,0.016853698938427912
2.8,0.017963157560215357,0.01908567633985832,0.01686448312719658
2.85,0.017976295627480036,0.019101196865587526,0.016875454647200538
2.9,0.01798965593099323,0.019116977556981517,0.016886613054477972
2.95,0.018003237815754383,0.019133017478629017,0.01689795789102104
3,0.018017040605588508,0.01914931566414677,0.01690948868445462
3.05,0.018031063602651685,0.019165871115443562,0.016921204947710405
3.1,0.018045306086930116,0.019182682801975413,0.016933106178696092
3.15,0.01805976731573265,0.019199749659992105,0.016945191859960053
3.2,0.018074446523177096,0.01921707059177566,0.01695746145835152
3.3,0.01810445569138365,0.019252470111310545,0.01698255019334798
3.4,0.018135326980779833,0.0192888718700746,0.01700836779130667
3.5,0.01816705337569791,0.01932626578413784,0.01703490938619174
3.6,0.018199627438178115,0.019364641150622353,0.01706216982670862
3.7,0.018233041290290793,0.019403986621883883,0.01709014366446983
3.9,0.01830235454412752,0.019485539107993142,0.017148208180247326
4,0.018338235827924206,0.019527719968860092,0.017178286366691112
4.1,0.01837492062887354,0.019570818574215096,0.01720905294229777
4.2,0.018412398597214455,0.019614819960953624,0.017240500789129625
4.32,0.018458403754407448,0.019668791042879587,0.017279126911048992
4.45,0.018509490698225002,0.01972866760601898,0.0173220508680127
4.58,0.018561849302875112,0.019789970340572605,0.01736607894221612
4.75,0.018632189062173385,0.019872217963012508,0.01742528720216468
4.88,0.01868736974043629,0.01993664903828576,0.01747178608580443
5,0.01873934476019134,0.019997435825069153,0.01751562663820529
5.15,0.018805673282721837,0.020075115764185573,0.0175716378963552
5.3,0.01887345952596049,0.020154372813013126,0.01762895781240224
5.5,0.018966003867135865,0.020262351963111686,0.01770734808781929
5.65,0.019036950216231505,0.020344943699933882,0.017767555935252085
5.8,0.019109138403046587,0.020428804076956464,0.01782892410925713
6,0.019207194206105394,0.02054241105815384,0.017912465830578192
6.15,0.01928198908937119,0.02062881863069965,0.017976340689608458
6.3,0.01935776703132872,0.02071612846558024,0.018041196987644566
6.45,0.0194344419484575,0.020804219699067615,0.018106974863444723
6.6,0.019511923923712465,0.02089296669299541,0.0181736115684998
6.75,0.01959011928896819,0.020982239270552122,0.018241041475175742
6.88,0.019658390538591555,0.021059930175665802,0.018300069480360684
7,0.019721764337159876,0.021131827972658473,0.018355000050203137
7.15,0.019801376960717047,0.021221834472898736,0.01842420275810961
7.32,0.019892009848375372,0.02132385173929211,0.018503267262300505
7.5,0.019988273158447194,0.0214316529233427,0.01858759529867632
7.65,0.020068590368846347,0.021521134307528014,0.018658250604602147
7.8,0.020148874121493274,0.02161013400822966,0.01872916368905203
8,0.020255665190917947,0.021727788968984602,0.018823966422711474
8.2,0.020361908736118015,0.021843958991091424,0.018918865034677965
8.4,0.020467321502754075,0.021958287881455228,0.019013645306264055
8.6,0.020571619409022687,0.02207042558703105,0.019108089052682475
8.8,0.020674519667452068,0.022180031491048885,0.019201975329596332
9,0.02077574301503037,0.02228677772864643,0.01929508175256311
9.2,0.02087501601710643,0.02239035245436971,0.019387185916192266
9.4,0.020972073406575864,0.022490462992799012,0.019478066896612172
9.6,0.021066660417025065,0.022586838804997136,0.019567506817850223
9.8,0.021158535066949386,0.022679234207598525,0.019655292460106954
10,0.021247470352031096,0.022767430788030923,0.01974121688578227
10.2,0.021333256303828704,0.0228512394683007,0.019825081057610165
10.4,0.02141570187608537,0.022930502180552276,0.01990669542247025
10.6,0.02149463662411692,0.02300509312969374,0.01998588143444265
10.8,0.021569912148225984,0.023074919631159246,0.020062472991486766
11,0.021641403278568977,0.02313992252472849,0.02013631776175154
11.2,0.021709008986091287,0.023200076177637877,0.02020727837791746
11.5,0.021802972427059072,0.02328123965087835,0.020308050637623816
11.8,0.02188787663986316,0.02335167780898909,0.020401726849178785
12,0.021939429339981702,0.02339282821952364,0.02046010945735004
12.2,0.02198696593633518,0.023429479330408308,0.020515176093556502
12.5,0.022050850994555282,0.023476369606267623,0.020591494266256956
12.8,0.02210606910547618,0.02351412796311726,0.02066025551386714
13,0.022138242707041515,0.02353459110524651,0.020701925564722733
13.2,0.02216685848896883,0.023551571333294864,0.02074030407615815
13.5,0.02220344878515659,0.02357109346581201,0.020791831127741193
13.8,0.022232965333272393,0.02358433596275054,0.020836349049334405
14,0.022249037662872912,0.02359018214246153,0.020862298334154764
14.2,0.022262473224667432,0.023594015982212963,0.020885399928290256
14.5,0.022278181065236123,0.023596725769613514,0.020915002859915238
14.8,0.022289280263845596,0.023596831553791633,0.02093898838260844
15,0.02229454421298301,0.023596058076467932,0.020952125972786874
15.5,0.022302200019289606,0.023593932701883744,0.020976272099612572
16,0.0223055759298018,0.0235965351107558,0.020990396453198498
16.5,0.022309438341990225,0.023610551917786275,0.020997750034136224
17,0.022318916677508478,0.023643294176673327,0.02100184686989389
17.5,0.022339566866476434,0.023702865051565967,0.021006456281765565
18,0.02237747131339389,0.023798349104703152,0.02101562136331173
18.5,0.022439367587506986,0.023939971952016897,0.021033703515332503
19,0.022532787979354207,0.02413912152112556,0.021065451308431037
19.5,0.02266617127951955,0.02440801672897187,0.021116089211319446
20,0.022848868003274896,0.02475864420810809,0.021191416236399748
20.5,0.023090889442345733,0.02520040235097121,0.021297893626782156
21,0.023402142753502907,0.02573591206342079,0.02144268006119272
21.5,0.023790774250501058,0.02635520004065836,0.021633536565062724
22,0.024260233559136375,0.027030479559403974,0.021878466028976435
22.5,0.024805071331883283,0.027716166892146003,0.022184878186157143
23,0.02540666250448232,0.028357914494198246,0.022558017837160497
23.5,0.026031741446014466,0.028907808509928527,0.02299847487398334
24,0.026636946732756458,0.0293365275043445,0.023499014614638526
24.5,0.027179218147085564,0.029635903215976932,0.024041865264912372
25,0.027626758061479073,0.02981358496778524,0.024598556837461913
25.5,0.02796441471832501,0.02988549716235534,0.02513410413756443
26,0.028192125642603493,0.02986996018781579,0.02561478975986636
27,0.02836116430707245,0.029643746923128027,0.026324802007555513
27.5,0.02833170014187625,0.02946053926405095,0.02654101601094757
28,0.0282450653782931,0.029244717071910176,0.026671405713013775
28.5,0.02811314218866974,0.02900419659731885,0.02672684952992691
29,0.027945763991812783,0.02874521854732561,0.02671927353203232
29.5,0.027750899745734754,0.02847269324819609,0.02666000737827024
30,0.027534936683786627,0.028190485726058916,0.026559043176253266
30.5,0.02730296814739703,0.027901642890319402,0.026424833244285163
31,0.02705904908748626,0.027608571352687843,0.026264359011297884
31.5,0.02680640892129001,0.027313175465137486,0.02608331076545739
32,0.026547623172703018,0.02701696419904187,0.025886294468441047
33,0.02601943494115324,0.026426632970018248,0.025458506620207724
34,0.025486501498029307,0.02584446096827372,0.02500291880736966
35,0.024956548143905688,0.025274726227871146,0.02453384718725678
36,0.02443453299398501,0.024720017980281485,0.024060695113261706
37,0.02392360129629277,0.024181815870333273,0.0235896635580737
39,0.02294193973205377,0.023157413224361937,0.022668881831910667
40,0.022472921101831172,0.022671390641081285,0.02222349988037071
41,0.02201884447949418,0.022202504398851176,0.02178973204034928
42,0.021579662134947657,0.021750322313538337,0.021368161079200122
43.2,0.02107198542832591,0.021229015848642216,0.02087873129380137
44.5,0.02054515253956446,0.020689406426701952,0.020368799611121858
45.8,0.020041480509712377,0.020174646587970236,0.019879635232171733
47.5,0.019416045133127266,0.019536768936949802,0.019270303700414552
48.8,0.018961792637072115,0.01907428765037665,0.018826600058632695
50,0.018559928351006894,0.01866564840480991,0.01843336083749965
51.5,0.01807985663334736,0.018178046422928786,0.017962812904244545
53,0.01762306846553286,0.017714611771264804,0.017514376698119387
55,0.0170477043343962,0.017131527301753817,0.016948651789625242
56.5,0.016639673269116997,0.016718466021384756,0.01654691875097668
58,0.016250367504874165,0.016324707010733023,0.016163242380666992
60,0.015758404172335486,0.01582745789371005,0.015677903934701292
61.5,0.015408368966480516,0.015473881204877419,0.015332273561628307
63,0.015073463101515621,0.015135749144659661,0.01500135730255923
64.5,0.01475277271020048,0.01481211223588249,0.01468429190648368
66,0.014445450801992011,0.014502092987690913,0.014380273185021624
67.5,0.01415071219542543,0.014204879949189474,0.014088552386041068
68.8,0.01390488633890205,0.013957072235521341,0.013845135347741132
70,0.013685490153888667,0.013735968791544862,0.013627808578158752
71.5,0.01342088756081907,0.013469382831905843,0.013365603822421487
73.2,0.013133254788418596,0.013179686163509516,0.013080459544387434
75,0.0128420321532791,0.012886469860749818,0.012791634798237125
76.5,0.012609196947218331,0.01265210916039141,0.012560630888222117
78,0.012384813061712706,0.012426312083267247,0.012337941162747376
80,0.012098027185162022,0.012137800687517639,0.012053221456794737
82,0.011824529480145252,0.01186274128935533,0.011781592233826157
84,0.011563442809314857,0.011600240021139664,0.011522197650343853
86,0.011313964424215813,0.011349479619837451,0.011274253295653807
88,0.011075358467036807,0.011109711580334835,0.011037039181717482
90,0.010846949321836693,0.010880249221481245,0.010809893489449381
92,0.01062811571329568,0.010660461549941987,0.010592206989507113
94,0.010418285462788444,0.01044977765385892,0.010383418062608611
96,0.010216930822396017,0.010247675495320938,0.010183008251708188
98,0.010023564317237218,0.010053637383400638,0.009990498285494183
100,0.009837735035194905,0.009867206382156928,0.009805444519379992
102,0.009659025310784533,0.009687959461603031,0.009627435746321788
104,0.009487047756641836,0.00951550444347213,0.009456090335367236
106,0.009321442601984534,0.009349477266781177,0.009291053660822347
108,0.009161875302523659,0.009189539535487156,0.009131995789347513
110,0.00900803439075392,0.009035376315395425,0.008978609396201681
112,0.008859629539422705,0.008886694151676531,0.008830607885293116
115,0.008646627118321022,0.008673354016049548,0.008618121795079342
118,0.008444409648906958,0.008470885312810246,0.008416323062414965
120,0.008315210830639274,0.008341563387899256,0.008287353524935415
122,0.00819025791272133,0.008216520586921603,0.008162592685776975
125,0.008010366569295673,0.008036552887168808,0.007982924220052057
128,0.007838984243453464,0.007865159656938849,0.007811692023342393
130,0.007729180518159653,0.007755382668425856,0.007701950729876377
132,0.007622758559578902,0.007649013162323644,0.007595562818797231
135,0.0074691544879619065,0.007495533452690014,0.007441959542566264
138,0.007322387149283314,0.007348942128335617,0.00729513632966566
140,0.007228134624436579,0.007254834031392107,0.007200816922058821
142,0.007136621720364692,0.0071634861865917995,0.007109214610077848
145,0.007004254169818769,0.0070314031111110625,0.006976672743527482
148,0.006877467573911212,0.006904942959039871,0.006849666151582465
150,0.006795887152464259,0.0068236022892343455,0.006767915006528862
155,0.006601610641592313,0.006629997739315072,0.006573132734567802
160,0.0064201737652077855,0.006449328763706319,0.006391085509085674
165,0.006250472105977684,0.00628048180005438,0.006220678287800303
170,0.0060915264021417365,0.006122468789326212,0.006060940459319269
175,0.005942464716699062,0.005974409055759325,0.005911008314706609
180,0.005802507418327287,0.00583551403445179,0.005770110291384486
185,0.005670954456299373,0.00570507432530743,0.005637554479278245
190,0.005547174519619641,0.005582448663569878,0.005512717983588879
195,0.005430595755407123,0.005467054485065709,0.005395037820436677
200,0.005320697788852103,0.0053583598341836475,0.005284003086356403
205,0.005217004840984295,0.005255876418566061,0.00517914819431213
210,0.005119079784005477,0.005159153659268713,0.0050800470105609
215,0.0050265190091746004,0.005067773620606627,0.004986307760558238
220,0.004938948010637706,0.0049813467312017365,0.004897568599785028
225,0.004856017611101511,0.004899508227559137,0.004813493768028405
230,0.004777400772411623,0.0048219152642425675,0.004733770264037757
235,0.00470278994622202,0.0047482446407837685,0.004658104992079313
240,0.004631894927232355,0.004678191095420915,0.004586222342994841
245,0.004564441174162892,0.004611466110569701,0.004517862180066905
250,0.00450016856214924,0.004547797166025495,0.004452778204395385
255,0.004438830525275598,0.004486927365197875,0.004390736675734961
260,0.0043801935405796315,0.004428615349448677,0.004331515463102901
270,0.004270152680365994,0.004318777689467558,0.0042206998766776156
275,0.004218345915614146,0.004266848420136527,0.0041687147237274855
280,0.004168434773759916,0.0042166700527729644,0.004118768178456505
285,0.004120250792954476,0.004168081274508379,0.004070691041681197
290,0.004073639038537538,0.004120936830968036,0.004024324873708607
295,0.004028458154181448,0.004075107141252204,0.003979522207577488
300,0.003984580266315244,0.004030477700994134,0.003936146725377146
