Frequency,Nominal,Min,Max
0.04149698784249286,0.5142779488114859,0.48328201245686864,0.5458742060370653
0.04259577443831724,0.5144796537836782,0.4834506041762834,0.5461142226065091
0.04384518217546827,0.5147150488505552,0.4836471776005622,0.5463945235897647
0.04514532090925924,0.5149669146941871,0.4838573200693129,0.5466946436254615
0.04664225552007536,0.51526684013781,0.4841073376199744,0.5470522825640093
0.04814561246884289,0.5155761717276458,0.48436498985568244,0.5474213739547319
0.04939635614091388,0.5158416762799377,0.4845859806122572,0.5477383535357613
0.050744457825461095,0.5161364435803646,0.4848311768053112,0.5480904481709339
0.052244616947586094,0.5164734016968591,0.48511130120094687,0.548493140412283
0.05399073994677236,0.5168797496251766,0.485448890172383,0.5489790305422947
0.055744954928674935,0.517299451020619,0.4857973615347416,0.5494811523490735
0.05724508712544685,0.5176707447231226,0.4861054660850884,0.5499255826199596
0.0589915248150105,0.5181175241603531,0.48647601160819387,0.5504606247911714
0.06074537019394976,0.5185780259614452,0.4868577439676683,0.5510123564627462
0.062245481763739285,0.5189846056224048,0.48719461355370464,0.5514997036069929
0.06374558808262734,0.519401954587025,0.487540259431381,0.5520001589192561
0.06524568951279464,0.519830158119206,0.48789474862765164,0.5525138320459914
0.06674578638386097,0.5202693021344083,0.4882581481419219,0.553040834092112
0.06814690014960328,0.5206890019242264,0.48860532559690756,0.5535446872226646
0.0693974062915899,0.5210719595041501,0.48892199957556226,0.5540045876352585
0.07074602462329597,0.5214945023300785,0.4892712868616208,0.5545121992110663
0.07234500673854416,0.5220070490901039,0.4896948148926671,0.5551281650040283
0.07409453421137081,0.5225823795624107,0.4901700206570685,0.5558198763055987
0.07574628703771558,0.5231388468974215,0.49062945209548386,0.556489193016006
0.0772463591375024,0.523657064200691,0.4910571306086313,0.5571127577692887
0.07899367063252599,0.5242767854345842,0.49156836349437205,0.5578587809666335
0.08099382692526635,0.5250042495047691,0.4921681991114901,0.5587349212603714
0.08299397568498572,0.525752891990874,0.4927851842528985,0.5596370382044173
0.0849941174435031,0.5265229533053448,0.4934194978231791,0.5605654526686144
0.08699425268372618,0.5273146792596342,0.49407132232546236,0.5615204932271629
0.08899438184514795,0.5281283211992747,0.4947408440027018,0.5625024962922547
0.09099450532861861,0.5289641361223187,0.4954282529596285,0.5635118062323439
0.09299462350050136,0.5298223867845872,0.49613374327070703,0.5645487754786721
0.09499473669630334,0.530703341792427,0.4968575130743569,0.5656137646196698
0.09699484522385712,0.5316072756869886,0.4975997646567527,0.5667071424870523
0.09899494936611666,0.5325344690189058,0.49836070452655734,0.5678292862328148
0.10099504938362078,0.5334852084158777,0.49914054348155235,0.5689805813987592
0.10299514551666986,0.5344597866444827,0.49993949666896337,0.5701614219792954
0.10499523798725349,0.5354585026651457,0.5007577836393877,0.571372210477541
0.10699532700076204,0.5364816616825507,0.5015956283964649,0.5726133579557512
0.10899541274750969,0.5375295751913182,0.5024532594409081,0.5738852840793522
0.11099549540409287,0.5386025610166975,0.5033309098116058,0.5751884171555497
0.11349008767288886,0.53998089002232,0.5044575582165027,0.5768635619905357
0.1164903429473877,0.5416865916407215,0.5058507196568881,0.5789382556144868
0.11899579824514814,0.5431518075186206,0.5070465261409509,0.5807218892675163
0.12099586769803339,0.5443551462378862,0.5080279299611232,0.5821877861472349
0.1234908903522847,0.5458989269274239,0.5092861086887492,0.5840697708592089
0.12649110640673517,0.5478066945827433,0.5108396865956564,0.5863974240497178
0.1289961239727768,0.5494433031572445,0.5121713727082471,0.5883959081417529
0.13099618315050252,0.5507859065147572,0.5132630542773658,0.5900365845787743
0.13349157276772194,0.5525065154742109,0.5146610911463836,0.5921407470799827
0.13649175799292793,0.5546303264230369,0.5163853164001109,0.594740200806775
0.13899640283115244,0.5564502466368316,0.517861606459325,0.5969695977595865
0.14099645385611653,0.5579418395136526,0.5190706845912645,0.5987981555495381
0.14349216006458332,0.559851669542251,0.5206176525897867,0.6011411857726399
0.14649232061783987,0.5622067186949028,0.5225236521882138,0.6040328930430053
0.14899664425751338,0.5642228813579782,0.5241540181257117,0.6065105974751186
0.15247950681976907,0.5671414632992854,0.5265116412607864,0.610101130394652
0.15748015748023622,0.5714796479310157,0.5300115870082056,0.6154449113080214
0.16248076809271922,0.5760350434338786,0.5336810106502506,0.6210650744013442
0.16748134224444228,0.5808151795074362,0.5375254642708329,0.6269716402555497
0.1724818831066034,0.5858277969338779,0.5415506717420854,0.633174865517699
0.17748239349298847,0.5910808315557616,0.5457625217015531,0.6396852089405518
0.18248287590894657,0.5965823945957536,0.5501670587280494,0.6465132901879782
0.18748333259252675,0.6023407487880671,0.5547704724602454,0.6536698403521215
0.19248376554920157,0.6083642797317739,0.5595790843704807,0.6611656430162511
0.197484176581315,0.6146614618114569,0.5645993318745576,0.6690114645781091
0.2024845673131659,0.6212408179640646,0.5698377494244441,0.6772179724268141
0.20748493921246428,0.6281108725015694,0.5753009461928701,0.6857956394487761
0.21248529360875776,0.6352800961259331,0.5809955799228081,0.6947546332206065
0.21748563170931545,0.6427568422059711,0.5869283264732267,0.7041046881443214
0.2224859546128699,0.6505492733108159,0.5931058445530639,0.7138549586917997
0.22748626332154653,0.6586652769359791,0.5995347350933391,0.7240138518654142
0.2324865587512534,0.6671123692968043,0.6062214946673503,0.7345888369575115
0.23748684174075832,0.6758975860230891,0.6131724623297694,0.7455862307213347
0.24248711305964282,0.6850273585592098,0.6203937592087897,0.7570109561587383
0.24748737341529164,0.6945073750738273,0.6278912201562536,0.768866273315623
0.25248762345905196,0.7043424247091084,0.6356703167346902,0.7811534807666112
0.25748786379167465,0.7145362240714537,0.6437360708094166,0.7938715868975136
0.26495282598983544,0.730549813849932,0.6564188791831067,0.8137999215701152
0.27248853186877425,0.7472870241266844,0.6696946473356308,0.8345592761057411
0.2774887385102322,0.7589243956066247,0.6789446448971876,0.8489320655401326
0.2824889378365107,0.7709155910219438,0.6884958917608501,0.8636828595851781
0.287489130229301,0.7832531605915124,0.6983482827508922,0.8787884115022682
0.2924893160441933,0.7959268222568449,0.7085003389386287,0.8942201413181597
0.2974894956128703,0.8089231380209236,0.7189490246745723,0.9099436516187845
0.30248966924508347,0.8222251787589121,0.7296895518863653,0.9259182601039777
0.30748983723043594,0.8358121822112445,0.7407151724033535,0.942096565040974
0.31248999983999487,0.849659210233357,0.7520169595279967,0.9584240626629588
0.3174901573277509,0.8637368128954823,0.7635835806230971,0.9748388383892997
0.32496153618543844,0.8852261000948,0.781426810089711,0.9994578647795638
0.33496268448888455,0.9142866927031977,0.8059462371951086,1.0318689902540021
0.3449637662132068,0.9434763956594455,0.831171190790194,1.0631284255042956
0.35496478698597694,0.9723009262685545,0.8568558006287039,1.092396059307248
0.36496575181789315,1.0001774597297364,0.8826902311344513,1.118758018320582
0.37986839826445157,1.0384154366178104,0.9207667264958719,1.1501513072793421
0.39496835316263,1.071254157469124,0.9570013212794302,1.1712225531968226
0.4049691346263318,1.0883200438576157,0.9790442555385772,1.177213499105576
0.41496987842492855,1.1009150484184183,0.9987855268200139,1.1765986313092445
0.42595774438317235,1.1088461673520649,1.017084932430765,1.1705757889386461
0.4384518217546826,1.1098875331295504,1.032740452175676,1.155251249254155
0.45145320909259246,1.1016910452037552,1.0423076511894287,1.12911109289086
0.46642255520075354,1.080513521279317,1.0435661549841617,1.092533524263939
0.48145612468842885,1.0488124665631793,1.0153715230171625,1.0602393343445593
0.4939635614091388,1.0152697545887914,0.9684171176526559,1.0352487222252869
0.507444578254611,0.973549089889536,0.9151779151764079,1.0074565598701084
0.522446169475861,0.9229134704017048,0.8556792268075113,0.969336921692516
0.5399073994677236,0.8609487654511522,0.7881857198243718,0.9178252835834713
0.5574495492867493,0.7987450169441137,0.7243022188461823,0.8648356666719745
0.5724508712544684,0.7469206215705058,0.6734694006474969,0.8173203410457164
0.589915248150105,0.6896028990842407,0.6191748598420559,0.7616942634631256
0.6074537019394977,0.6361660187289958,0.5699080132357888,0.7074453299320795
0.6224548176373929,0.5939776184696082,0.531813120012899,0.6632053740029383
0.6374558808262734,0.5550834989273628,0.49699862223364305,0.6214185777842014
0.6524568951279464,0.5193894415596565,0.4652216587717842,0.5823439405355677
0.6674578638386097,0.4867268883318043,0.43636746856384473,0.5461442161492107
0.6814690014960328,0.4587655422284351,0.41179850219242065,0.514789380799475
0.6939740629158988,0.43574253702772225,0.39164000758249196,0.48875131466284794
0.7074602462329597,0.4128072310571469,0.37160499707284217,0.4626430184525109
0.7234500673854416,0.3879188097281165,0.34989584221690906,0.4341607011232704
0.7409453421137081,0.36326585943968537,0.3284052163060961,0.4058293682591922
0.7574628703771559,0.3421854347880744,0.31002384097670505,0.38153976164705095
0.772463591375024,0.32470531333999175,0.29476775291596113,0.36137200268209996
0.78993670632526,0.30612642679702357,0.2785285807695713,0.3399292643675421
0.8099382692526635,0.28691036599222963,0.2616975818578369,0.31776260082616764
0.8299397568498571,0.2696247889495491,0.24651744047879037,0.29784998220286474
0.849941174435031,0.25402102300968243,0.23277451070284422,0.27991047320903273
0.8699425268372618,0.2398863284503912,0.2202874835420243,0.2636993754260587
0.8899438184514796,0.2270387625311768,0.20890214792529052,0.24900464428171876
0.9099450532861861,0.21532258933750792,0.19848697319135278,0.23564303810998977
0.9299462350050136,0.20460428302725747,0.1889294167131383,0.22345637738701024
0.9499473669630333,0.19476910389766067,0.1801328531763292,0.21230810133383843
0.9699484522385713,0.18571819501720227,0.17201402737162258,0.20208019791359033
0.9899494936611666,0.17736613573081106,0.16450094299711512,0.1926705211233011
1.0099504938362078,0.1696388876226686,0.15753111215107185,0.1839904768519379
1.0299514551666986,0.16247207304068703,0.1510501020580739,0.1759630432729894
1.049952379872535,0.15580953299347594,0.14501032627954868,0.16852108630684304
1.0699532700076204,0.1496021184761147,0.13937003692952904,0.1616059306349123
1.089954127475097,0.14380667622789653,0.13409248224001769,0.15516614941741602
1.1099549540409288,0.13838519619290812,0.12914520032028304,0.14915653972583479
1.1349008767288886,0.13209924116924893,0.12339608189142104,0.14220725456577535
1.164903429473877,0.12515739603541332,0.11703184864453078,0.13455479653830266
1.1899579824514812,0.11982147969629568,0.11212893026111073,0.12868854222318693
1.2099586769803339,0.11583516785492387,0.10845944175431126,0.12431568698430298
1.2349089035228469,0.11117080002222127,0.10415863961754496,0.1192094288734043
1.2649110640673518,0.10596916410388971,0.09935400628711372,0.11352732180075872
1.289961239727768,0.10193377597640732,0.09562049459027952,0.10912813548808574
1.3099618315050252,0.0988961408560103,0.0928063730551792,0.10582211304491185
1.3349157276772194,0.09531669588805126,0.08948628489499945,0.10193232437886501
1.3649175799292792,0.09129461587783008,0.08575085131294198,0.0975685673077687
1.3899640283115242,0.0881518066445372,0.0828285396840184,0.09416391764395864
1.4099645385611652,0.08577199611056287,0.08061356068546374,0.09158899085726448
1.4349216006458332,0.0829520997073204,0.0779866551527186,0.08854133522585383
1.464923206178399,0.07976442067057454,0.07501435966402584,0.08510031249402546
1.489966442575134,0.07725929622205319,0.0726764641864808,0.08239911618921558
1.5247950681976907,0.07399218133162226,0.06962447028645777,0.07888071825480439
1.5748015748023623,0.06969393095629603,0.06560505425561769,0.07425811648105896
1.624807680927192,0.06580514518646871,0.061964330460239685,0.07008217603614036
1.6748134224444224,0.06227372292023603,0.058654883102555566,0.06629492619018698
1.724818831066034,0.059055873253493166,0.055636711582834175,0.0628478582699748
1.7748239349298849,0.05611452641266412,0.05287584215652697,0.05970007364660715
1.8248287590894658,0.05341809649784013,0.05034324079893715,0.056816850511140736
1.8748333259252674,0.050939508337061304,0.04801395352517192,0.054168523188115436
1.9248376554920157,0.048655424830672575,0.045866420363935186,0.05172959730897974
1.9748417658131499,0.04654562808545901,0.04388192327271169,0.0494780448625724
2.0248456731316584,0.044592519675298224,0.042044138354739836,0.047394737795433864
2.074849392124643,0.042780714027266464,0.04033877002441054,0.04546298933142223
2.124852936087578,0.041096705235243135,0.038753250096900914,0.04366817978046138
2.1748563170931545,0.03952859223749244,0.03727648871650699,0.04199744916661294
2.224859546128699,0.03806585073657272,0.03589866697816796,0.04043944311413264
2.274862633215465,0.03669914282016441,0.034611063311797315,0.03898410149477847
2.3248655875125337,0.03542015719314876,0.03340590738290241,0.037622481645958626
2.3748684174075834,0.03422147442044518,0.03227625655361149,0.03634660972025457
2.4248711305964283,0.03309645272503429,0.03121589094550394,0.035149355066758134
2.4748737341529163,0.03203913077323796,0.030219223921854586,0.03402432357817562
2.5248762345905194,0.031044144571935182,0.029281225415417396,0.032965766740673454
2.5748786379167465,0.0301066561469844,0.028397356008169526,0.031968503751814994
2.649528259898354,0.028804691304563586,0.027169738232826444,0.03058371834659887
2.7248853186877424,0.027597454811929108,0.026031345714123567,0.02929984232999855
2.7748873851023212,0.02685011376796966,0.025326573032618153,0.028505140575073078
2.824889378365107,0.02614208642015533,0.024658845352875478,0.027752293876650132
2.8748913022930105,0.025470651477161182,0.02402560301385358,0.027038397754863105
2.924893160441933,0.02483332041990357,0.02342450463226437,0.026360797205566312
2.9748949561287037,0.024227813835128082,0.02285340501105977,0.02571706118157753
3.0248966924508345,0.023652040534229705,0.02231033563169791,0.025104960101449896
3.0748983723043595,0.023104079085192044,0.021793487387655675,0.024522445977211357
3.124899998399949,0.02258216144109753,0.021301195267408913,0.02396763481430243
3.1749015732775088,0.022084658395124728,0.02083192473747634,0.02343879098831576
3.249615361854384,0.02138353189996919,0.020170575417527002,0.022693518080875302
3.349626844888845,0.020517272541082397,0.01935344961525451,0.021772741645279873
3.449637662132068,0.019725076939046036,0.018606178004663056,0.0209307123680261
3.5496478698597698,0.01899872029518923,0.017921007833328,0.02015867757398599
3.6496575181789317,0.0183310910236182,0.017291234479253147,0.019449071169308926
3.7986839826445156,0.0174320605646919,0.0164431851233991,0.01849351966588289
3.9496835316262997,0.01662265926881116,0.01567969002537505,0.017633231016581204
4.049691346263317,0.016135535475640075,0.01522020055773995,0.017115477880424654
4.149698784249286,0.015683091907260464,0.01479342937236243,0.016634581439222158
4.2595774438317235,0.015222146392571054,0.01435864525720581,0.016144642757239674
4.384518217546827,0.014739402208612796,0.013903307911220967,0.015631526731570745
4.514532090925925,0.014278858555400446,0.013468919848666916,0.015141999177900102
4.664225552007536,0.013795397007612077,0.013012926901230033,0.014628100010116617
4.814561246884289,0.013354380325416403,0.01259697814053026,0.014159306845901286
4.9396356140913875,0.013017621706763247,0.012279369661650809,0.013801329585641666
5.07444578254611,0.01268206204698373,0.011962899968403141,0.0134446185384867
5.2244616947586096,0.012338647460795866,0.011639030853733062,0.013079548511923422
5.399073994677235,0.011974272844982991,0.011295405497639053,0.012692185605491966
5.574495492867494,0.011642009006591791,0.010982072160800507,0.012338949444454437
5.724508712544685,0.011381656730958844,0.01073656077208384,0.012062156458480522
5.89915248150105,0.01110311162168223,0.010473901202907004,0.01176601454524679
6.074537019394977,0.01084710821947923,0.010232504401582307,0.011493832363981486
6.224548176373929,0.01064500929135858,0.010041941340200552,0.011278957164659266
6.374558808262734,0.010456941477637021,0.009864612136130171,0.011078997317488532
6.524568951279464,0.01028163255810701,0.009699316275496457,0.010892601218125299
6.674578638386096,0.01011795159853556,0.0095449865477144,0.01071856739371497
6.814690014960328,0.009974681535964671,0.009409903142937765,0.010566235220260728
6.9397406291589885,0.009854033408901496,0.009296149850751225,0.010437956231659105
7.074602462329597,0.009730984812204775,0.009180133695507322,0.010307125953253558
7.234500673854416,0.009593869856635297,0.009050855021525441,0.010161341877249
7.409453421137082,0.009453846880390927,0.008918833585679267,0.010012469660699939
7.574628703771558,0.009330410391562625,0.008802449092347365,0.009881236797578498
7.72463591375024,0.009225066952737155,0.008703121752415952,0.009769244759287752
7.899367063252599,0.009109811670883195,0.00859444500219667,0.009646722576236253
8.099382692526634,0.008986887964547689,0.008478531778313307,0.009516059163213755
8.299397568498572,0.008872710585452272,0.008370858396660468,0.009394706281825305
8.499411744350311,0.00876647337667006,0.00827066369243321,0.009281808075089227
8.699425268372618,0.008667462162093666,0.008177273263922336,0.00917660644795509
8.899438184514796,0.00857504250570033,0.008090087923768717,0.009078428060034588
9.09945053286186,0.008488649330978664,0.00800857390541444,0.008986673294767504
9.299462350050135,0.008407778084289462,0.007932254526339125,0.008900806869044495
9.499473669630333,0.008331977185167464,0.007860703065589808,0.008820349810240755
9.699484522385713,0.008260841553702984,0.007793536657557149,0.008744872577696537
9.899494936611665,0.00819400704288337,0.007730411039604856,0.008673989145766704
10.099504938362077,0.008131145634101484,0.007671016019745373,0.008607351897800814
10.299514551666986,0.008071961278564608,0.00761507155371515,0.008544647206442723
10.499523798725349,0.008016186287218076,0.007562324339556216,0.008485591596788907
10.699532700076205,0.00796357818800941,0.007512544853119796,0.00842992840615803
10.89954127475097,0.007913916982597507,0.007465524760417252,0.008377424868323052
11.099549540409285,0.007867002745501362,0.0074210746530438305,0.008327869561640885
11.349008767288884,0.007812070084627913,0.007368979470066243,0.008269912249330817
11.64903429473877,0.007750835356445508,0.007310837684733247,0.00820540474935287
11.899579824514815,0.007703408399287286,0.007265743493956348,0.00815553115767989
12.099586769803338,0.0076677985158917486,0.007231838047209425,0.008118150140802732
12.349089035228468,0.007625989279537256,0.007191967542982425,0.008074348464553557
12.649110640673518,0.007579266087383168,0.007147320272464039,0.008025524630911888
12.89961239727768,0.007543008269561931,0.00711259280331378,0.00798774831014305
13.099618315050252,0.0075157533191944495,0.00708642811326109,0.00795943490619169
13.349157276772193,0.007483735299588792,0.0070556115981816195,0.007926282674464397
13.649175799292792,0.007447955315995826,0.007021059578181882,0.007889392839101452
13.899640283115243,0.007420210960814191,0.006994165457277607,0.007860927288866672
14.099645385611653,0.007399384062490206,0.006973900436694308,0.007839662586973262
14.349216006458331,0.0073749687589483295,0.0069500440352129236,0.00781487033740997
14.64923206178399,0.007347775449437457,0.006923328806434459,0.0077874540715199185
14.89966442575134,0.007326781854639029,0.006902576049733718,0.007766462889959716
15.247950681976906,0.007300133404866095,0.006875994464634431,0.007740143050890724
15.748015748023622,0.007266463755589839,0.006841965059694235,0.007707491000612095
