Frequency,Nominal,Min,Max
0.041,323485835.36950535,308081769.18440473,340511383.93612295
0.042,315783800.28249884,300746498.1903705,332403978.0517216
0.0432,307012038.3663976,292392439.8435356,323170543.8202365
0.0445,298043158.5232724,283850650.18937016,313729616.98102343
0.0458,289583429.3858718,275793765.9692283,304824638.25309974
0.0475,279219405.4125803,265923267.82662636,293915138.4334279
0.0488,271781194.7269947,258839258.32249832,286085442.28636205
0.05,265258456.3872692,252627127.191259,279219401.2931675
0.0515,257532494.81302986,245269069.32522637,271086809.36790335
0.053,250243852.1884838,238327505.69699675,263414553.17915857
0.055,241144092.86037236,229661069.27645233,253835858.09025344
0.0565,234742050.19819707,223563886.564766,247096865.01979396
0.058,228671148.01184142,217782075.7348125,240706440.87125006
0.06,221048793.55296198,210522691.5706788,232682908.80258965
0.0615,215657372.47846195,205388005.609159,227007727.9296835
0.063,210522686.05212873,200497828.83636925,221602794.05484784
0.0645,205626822.55432266,195835102.47170043,216449252.7363567
0.066,200953498.6035532,191384318.5327806,211529963.57264102
0.0675,196487878.2300178,187131347.52455974,206829309.75338244
0.0688,192775182.45235634,183595447.45654836,202921208.24623832
0.07,189470475.4084619,180448108.03562278,199442568.61707783
0.0715,185495583.26685303,176662497.24828386,195258470.83142653
0.0732,181187640.37714246,172559695.37575623,190723793.2050003
0.075,176839152.50865912,168418279.28947031,186146436.60058475
0.0765,173371731.09159485,165115973.95407805,182496518.5249809
0.078,170037672.28814796,161940680.63165453,178986982.14792183
0.08,165786747.6950774,157892182.05400252,174512323.62222084
0.082,161743185.7024483,154041171.66724682,170255941.5180376
0.084,157892174.6959433,150373543.17203754,166202244.66240627
0.086,154220280.88583276,146876502.48291776,162337092.22403258
0.088,150715291.73599857,143538418.61310852,158647628.90173966
0.09,147366080.2690889,140348694.44132224,155122142.0877887
0.092,144162487.07099992,137297654.335079,151749937.66207033
0.094,141095217.35861522,134376446.11998236,148521231.64235687
0.096,138155750.91407815,131576955.30283546,145427055.3782729
0.098,135336263.0475204,128891729.79804936,142459172.3541675
0.1,132629555.04426304,126313913.68688224,139610004.9756418
0.102,130028992.79470003,123837188.76970935,136872569.96942636
0.104,127528452.50534886,121455722.86226156,134240421.23711854
0.106,125122272.55582011,119164123.94512035,131707599.17830838
0.108,122805210.7050123,116957399.40771298,129268585.6444681
0.11,120572405.96572241,114830919.7384174,126918263.80696288
0.112,118419344.56411898,112780386.10501322,124651882.3249175
0.115,115330170.07807444,109838316.71810661,121400118.11907198
0.118,112398072.92558548,107045844.79172802,118313698.47486494
0.12,110524788.99688071,105261765.89441577,116341819.5958726
0.122,108712924.49914691,103536181.69326589,114434592.74948175
0.125,106103840.14536461,101051341.00374804,111688186.57759997
0.128,103617057.23350261,98682977.87796257,109070518.76563542
0.13,102022965.95856138,97164796.74613677,107392526.89060712
0.132,100477180.74394836,95692621.38605152,105765383.50013538
0.135,98244380.36261196,93566146.38457324,103415065.72030574
0.138,96108658.82715185,91532127.4267853,101166936.19929439
0.14,94735695.29420863,90224544.14447848,99721710.36847718
0.142,93401407.03587975,88953794.45704189,98317195.35304406
0.145,91468990.00912036,87113398.84087053,96283070.5780364
0.148,89614914.7431937,85347614.42549078,94331410.81443286
0.15,88420066.52901365,84209664.78009817,93073674.7928429
0.155,85567849.19533983,81493269.90640073,90071338.10916139
0.16,82893896.80686879,78946651.17098741,87256648.73622346
0.165,80382003.4594891,76554374.37946634,84612547.82759619
0.17,78017869.82604365,74302821.12502098,82123983.45995633
0.175,75788830.78819312,72179929.39018524,79777623.92978904
0.18,73683628.46296923,70174977.38165584,77561618.83396985
0.185,71692222.03583258,68278402.41891892,75465398.89403641
0.19,69805627.62009007,66481648.419409536,73479507.38715398
0.195,68015782.75332464,64777036.84749222,71595457.51077841
0.2,66315431.219361,63157657.021095105,69805611.14262006
0.205,64698024.72555301,61617272.471031316,68103075.34305152
0.21,63157638.626173206,60150240.67756024,66481613.64288611
0.215,61688899.405329175,58751444.00649849,64935569.70960562
0.22,60286922.04857321,57416230.06313385,63459801.42273891
0.225,58947255.76496406,56140359.99895067,62049623.73919004
0.23,57665836.78885961,54919963.56095636,60700759.010914825
0.235,56438947.20701282,53751499.879391685,59409293.645021744
0.24,55263178.932280496,52631723.15697727,58171640.1813602
0.245,54135402.088714756,51557652.559476934,56984504.013669394
0.25,53052737.190443546,50526545.71939331,55844854.104189366
0.255,52012530.59362392,49535875.35687585,54749897.14361189
0.26,51012332.78086235,48583308.598216295,53697054.69257549
0.27,49123072.66660336,46784018.424937025,51708354.539221115
0.275,48229969.073783115,45933446.16143815,50768242.84603724
0.28,47368762.81600867,45113252.31226116,49861707.2950136
0.285,46537775.08617026,44321838.01349187,48986980.72077163
0.29,45735442.856958754,43557714.66769286,48142417.8314071
0.295,44960309.06901817,42819494.599286854,47326484.8802296
0.3,44211013.80028284,42105882.64440168,46537750.37032807
0.305,43486286.303904526,41415668.56794363,45774876.673441276
0.31,42784937.81670256,40747720.214502424,45036612.45990552
0.315,42105855.0525236,40100977.311550915,44321785.8495595
0.32,41447994.30559883,39474445.853594854,43629298.204751946
0.33,40192080.31491192,38278342.46447817,42307278.18164758
0.34,39010046.18105922,37152600.84373927,41063026.428927466
0.35,37895559.34486708,36091189.982640244,39889877.09483087
0.36,36842990.8648473,35088748.984524615,38781904.97779224
0.37,35847320.333726205,34140496.5091306,37733825.43857709
0.39,34009166.05691565,32389883.73482284,35798915.6080798
0.4,33159022.971921988,31580228.827045742,34904022.85437411
0.41,32350352.40684508,30810071.557241287,34052785.38483068
0.42,31580192.03881717,30076590.66553431,33242084.96485284
0.432,30703067.61577586,29241240.27979929,32318789.743662648
0.445,29806235.713777825,28387121.383713458,31374749.278281044
0.458,28960318.88202929,27581493.030640937,30484303.623762365
0.475,27923989.822186027,26594521.767467756,29393421.926815707
0.488,27180224.83483766,25886180.885055453,28610504.529739313
0.5,26528002.767821927,25265023.218938187,27923948.63105053
0.515,25755471.31865834,24529286.740568448,27110749.688953638
0.53,25026671.76396648,23835199.685379606,26343584.32009884
0.55,24116782.107373256,22968648.45254144,25385795.143909767
0.565,23476642.547701083,22358999.487540487,24711956.085880835
0.58,22869617.03506499,21780887.710055266,24072973.91959386
0.6,22107467.86296884,21055041.69993571,23270701.04343104
0.615,21568390.460188285,20541642.40769173,22703243.20361239
0.63,21054986.521630257,20052694.03360507,22162810.06311143
0.645,20565464.875316314,19586490.699597366,21647516.17774363
0.66,20098197.183082927,19141481.607413996,21155647.50734017
0.675,19651699.847935375,18716253.80753252,20685642.370857287
0.688,19280486.344887488,18362723.860911872,20294884.432426125
0.7,18950067.40133358,18048045.358452477,19947068.66509909
0.715,18552642.887607686,17669553.57852595,19528719.130518276
0.732,18121921.924960583,17259351.928914882,19075319.643702883
0.75,17687150.77675904,16845293.476596374,18617656.27449801
0.765,17340473.333129134,16515132.239023631,18252724.708979394
0.78,17007132.150122073,16197672.20185775,17901831.312706668
0.8,16582125.95275746,15792914.736113241,17454445.781080175
0.82,16177856.014063384,15407906.087803824,17028887.890474074
0.84,15792841.172573822,15041235.626953207,16623598.523563536
0.86,15425738.049281513,14691623.944974411,16237163.59719088
0.88,15075325.39054038,14357907.943148253,15868297.581210183
0.9,14740490.498580959,14039027.909304699,15515829.21481933
0.92,14420217.431958582,13734016.280154483,15178689.085979141
0.94,14113576.712327344,13441987.838216685,14855898.796438616
0.96,13819716.317867316,13162131.134130353,14546561.481131978
0.98,13537853.779557392,12893700.959295344,14249853.488465905
1,13267269.22589543,12636011.721796218,13965017.058972295
1.02,13007299.245886577,12388431.60162925,13691353.865295976
1.04,12757331.460148325,12150377.380326293,13428219.297568468
1.06,12516799.706607485,11921309.855904259,13175017.39572056
1.08,12285179.76111968,11700729.767264644,12931196.344871258
1.1,12061985.524930367,11488174.16320403,12696244.462128878
1.12,11846765.620622167,11283213.16045915,12469686.61337769
1.15,11537977.522181945,10989144.758309038,12144630.638996245
1.18,11244897.152657837,10710036.096864812,11836109.117121749
1.2,11057654.987747176,10531720.55822352,11639001.522174727
1.22,10876554.763875008,10359254.48671909,11448359.1287921
1.25,10615775.6634139,10110908.93594427,11173838.945247414
1.28,10367226.702320615,9874211.13573254,10912192.593720486
1.3,10207903.792151341,9722485.360831391,10744473.690409306
1.32,10053411.48578534,9575360.16041914,10581839.63371715
1.35,9830260.766039517,9362851.158541072,10346928.275761439
1.38,9616817.925672648,9159587.75475909,10122235.73939676
1.4,9479607.778213792,9028921.750972787,9977793.431041982
1.42,9346265.155816033,8901939.103782758,9837422.202248223
1.45,9153152.753717463,8718038.018986026,9634130.130102633
1.48,8967874.522109391,8541598.047533168,9439084.554490069
1.5,8848475.89418381,8427895.392573705,9313391.21688973
1.55,8563469.633224852,8156486.665518112,9013358.200590316
1.6,8296289.850184727,7902055.532298902,8732089.901688306
1.65,8045315.954119714,7663058.572835975,8467880.435101368
1.7,7809118.011781801,7438133.945807151,8219224.608058345
1.75,7586429.510805048,7226075.448825682,7984789.24976912
1.8,7376124.662360912,7025810.901921504,7763389.3194828415
1.85,7177199.384464053,6836384.03640392,7553967.888915094
1.9,6988755.287914065,6656939.243377527,7355579.285344436
1.95,6809986.125938477,6486708.668640333,7167374.828078744
2,6640166.2763893185,6325001.243347139,6988590.704451564
2.05,6478640.909471886,6171193.319941707,6818537.620062934
2.1,6324817.560083678,6024720.645812901,6656591.927557209
2.15,6178158.876106069,5885071.4569057925,6502187.993245849
2.2,6038176.355565266,5751780.513113061,6354811.604645298
2.25,5904424.918838488,5624423.928947551,6213994.257009783
2.3,5776498.188833262,5502614.67847493,6079308.185098991
2.35,5654024.373697004,5385998.674084728,5950362.029188158
2.4,5536662.664187922,5274251.335415007,5826797.042826909
2.45,5424100.07218416,5167074.578408693,5708283.76495414
2.5,5316048.648571861,5064194.165683166,5594519.091359145
2.55,5212243.028440504,4965357.368621055,5485223.690676693
2.6,5112438.259524943,4870330.8992198035,5380139.71853654
2.7,4923942.189149255,4690862.194122576,5181670.180157928
2.75,4834846.757507497,4606035.072278258,5087859.213966333
2.8,4748941.030081638,4524245.756620364,4997405.837845884
2.85,4666057.125637201,4445334.360128844,4910133.334826307
2.9,4586038.74092025,4369152.022431979,4825877.175285115
2.95,4508740.169472662,4295559.975344722,4744483.984121562
3,4434025.418565842,4224428.7018532185,4665810.6112132
3.05,4361767.412993447,4155637.177822138,4589723.29330294
3.1,4291847.275916403,4089072.187085194,4516096.896993816
3.15,4224153.678198897,4024627.7017651224,4444814.2338394895
3.2,4158582.2487440994,3962204.3206886644,4375765.439645014
3.3,4033420.03768555,3843053.3879558234,4243963.293407842
3.4,3915645.672233857,3730938.463569476,4119937.858685245
3.5,3804625.8923320477,3625256.441692135,4003022.546877187
3.6,3699797.799700981,3525471.227706981,3892624.8344099466
3.7,3600659.349492506,3431104.682649538,3788216.2539498834
3.9,3417700.6537829842,3256960.2404624796,3595523.6268927786
4,3333114.4661599156,3176452.8726372933,3506433.3272695635
4.1,3252675.3616785486,3099895.065647108,3421708.4167201295
4.2,3176087.1039827787,3027004.6886354596,3341037.068412284
4.32,3088887.7626403067,2944018.62348212,3249185.7856008695
4.45,2999760.136119694,2859201.0997718964,3155299.587543149
4.58,2915723.700470987,2779232.2505312413,3066772.609545304
4.75,2812816.3956958675,2681311.2845775974,2958360.878945993
4.88,2738994.3812872744,2611070.2657221043,2880586.0964155085
5,2674283.7000766536,2549501.5801004823,2812407.444858495
5.15,2597669.5379632725,2476611.274384874,2731683.3731915182
5.3,2525428.0816948977,2407885.330496285,2655562.259240325
5.5,2435289.6731488,2322139.62581158,2560576.5982070384
5.65,2371913.0365857193,2261856.0752705634,2493787.1401354657
5.8,2311847.27724505,2204725.610768914,2430482.935083985
6,2236480.5729364157,2133047.6165009346,2351046.965700052
6.15,2183208.343340463,2082386.8642629283,2294894.133511113
6.3,2132502.8896253146,2034170.5200041127,2241443.2991569364
6.45,2084185.0818434265,1988227.9808045507,2190505.9075603336
6.6,2038092.0735091497,1944404.1518340993,2141910.5441050245
6.75,1994075.4923355915,1902557.723245147,2095501.0301476978
6.88,1957502.3721451599,1867790.2988079318,2056937.0203424613
7,1924966.1153253731,1836862.4709018308,2022627.510863476
7.15,1885855.132599267,1799687.6287411628,1981382.1623267687
7.32,1843497.9095577162,1759430.7643273089,1936709.77678494
7.5,1800776.784056836,1718832.0009607114,1891649.4960625109
7.65,1766738.2811751226,1686487.5490570269,1855744.098042041
7.8,1734032.7101058846,1655412.387288543,1821241.94106276
8,1692369.0528756203,1615829.7815739838,1777285.3849752648
8.2,1652777.7382690236,1578220.5246751234,1735510.5278457243
8.4,1615110.622533772,1542443.5212529707,1695761.4346146209
8.6,1579233.3404695182,1508370.798512572,1657896.6738670433
8.8,1545023.739722699,1475886.0150564462,1621787.669720796
9,1512370.5238424728,1444883.1685580544,1587317.2734631253
9.2,1481172.0723297554,1415265.4720000362,1554378.5214960428
9.4,1451335.4113186542,1386944.3733717848,1522873.5518421296
9.6,1422775.3129230496,1359838.6979051728,1492712.6560874083
9.8,1395413.5048675584,1333873.895342935,1463813.4474131048
10,1369177.9749630503,1308981.3775351099,1436100.128463845
10.2,1344002.3574088013,1285097.9339655258,1409502.8453492217
10.4,1319825.3899061428,1262165.214717728,1383957.1161838442
10.6,1296590.432231124,1240129.2719732088,1359403.3243211503
10.8,1274245.038299246,1218940.1524543893,1335786.267894725
11,1252740.5749141749,1198551.534328452,1313054.7585007192
11.2,1232031.8813649074,1178920.4030143789,1291161.2628786955
11.5,1202369.8486837393,1150807.259966112,1259796.4510096316
11.8,1174274.720727021,1124185.5079841013,1230081.8487906102
12,1156356.925123251,1107210.776485254,1211127.6269377458
12.2,1139051.5507718348,1090818.8940452475,1192818.440425019
12.5,1114177.2432424333,1067262.4417216117,1166496.1775090727
12.8,1090521.8452525816,1044865.9148092855,1141457.8557373385
13,1075386.906326359,1030539.4414168762,1125434.8996005845
13.2,1060733.1544857107,1016670.8151695026,1109918.8550236772
13.5,1039607.7468369298,996681.5652804758,1087545.774594116
13.8,1019448.8070302438,977611.7853070953,1066190.9435177222
14,1006515.5916764103,965380.0309991371,1052487.6160437448
14.2,993967.164260575,953514.3011379356,1039189.7421803504
14.5,975830.9553036612,936368.6204721184,1019966.2729901973
14.8,958473.6482778164,919963.7473597665,1001563.6458399089
15,947311.5941967142,909416.5887433826,989726.7925990424
15.5,920746.5023510228,884322.9453360055,961547.0996896029
16,895951.0325809001,860911.8077685757,935232.8613300908
16.5,872762.9048121443,839028.5998147795,910613.2851170828
17,851038.9187454057,818536.9205831136,887537.6589064368
17.5,830652.2300121377,799315.9502482186,865872.4837020085
18,811490.0802516867,781258.2880812151,845499.0843629593
18.5,793451.8952296427,764268.140989786,826311.6077289508
19,776447.6831979527,748259.7979981271,808215.3367945213
19.5,760396.679605287,733156.3393425284,791125.2642039489
20,745226.1950448198,718888.5391237146,774964.8796838912
20.5,730870.6317391793,705393.928469002,759665.1348865073
21,717270.6404722198,692615.9924524138,745163.5560735628
21.5,704372.3951036711,680503.4789983609,731403.480573551
22,692126.9659600573,669009.8019538067,718333.3973200365
22.5,680489.7767211561,658092.5236812663,705906.3752803948
23,669420.1320963835,647712.90507267,694079.5664000747
23.5,658880.8057483522,637835.5129439129,682813.7719642465
24,648837.6796781495,628427.8764434864,672073.0631285291
24.5,639259.4277213925,619460.1854747195,661824.4478805464
25,630117.2369804108,610905.025251384,652037.5779322995
25.5,621384.56198659,602737.1420289229,642684.4900630544
26,613036.9071879314,594933.2358163828,633739.3772756624
27,597407.7893874831,580332.8403963408,616979.434794531
27.5,590085.9527948513,573497.9644868617,609122.055265955
28,583068.0998579228,566950.0163709088,601587.2467741993
28.5,576337.4801252275,560673.077767625,594357.3487875162
29,569878.507519115,554652.3400754877,587415.9254815776
29.5,563676.661888856,548874.0105141029,580747.6622043864
30,557718.4003822,543325.2276219215,574338.272272619
30.5,551991.0775098773,537993.9850379142,568174.4129146225
31,546482.8729227573,532869.0626335301,562243.6093281735
31.5,541182.7260458455,527939.9641797844,556534.1859521491
32,536080.2768202681,523196.86083618586,551035.2041638694
33,526430.2157019798,514232.3578177353,540628.1612697691
34,517461.89261126984,505908.4330088021,530947.6847998111
35,509112.73977974104,498165.80280093814,521927.63819141756
36,501327.27592534025,490951.9306142891,513509.34306461323
37,494056.14813589555,484220.1129992391,505640.5722120218
39,480885.4100393215,472040.4902966843,491369.98882251856
40,474911.0658273241,466522.0819220213,484888.96789457585
41,469300.5114899266,461343.49305071257,478797.921142661
42,464025.09945137356,456477.7083825787,473066.4343673618
43.2,458100.72702615353,451017.4951751823,466624.73905002873
44.5,452138.92637388397,445527.3658142317,460136.6310907008
45.8,446607.71038449643,440438.01314592443,454111.77785493864
47.5,439958.3625287226,434325.4844561065,446861.8973472465
48.8,435275.6623189868,430024.65478781686,441751.43122419354
50,431233.038025795,426314.3294206149,437336.16447642987
51.5,426524.1731539061,421995.685338254,432189.20036681846
53,422163.3214268285,417999.3325929983,427418.6162616408
55,416833.7293471485,413119.4122982403,421582.83830447285
56.5,413163.06046312134,409761.2151636408,417559.9446822579
58,409744.2840761217,406635.55499710503,413810.3881940914
60,405539.70647918066,402794.2970581922,409195.2868121458
61.5,402626.3611641867,400134.571018986,405995.01873820723
63,399899.5945766927,397646.60371306835,402997.8226161468
64.5,397344.0254411622,395316.1133024322,400187.11337394064
66,394945.8102081958,393130.2576204188,397547.949547577
67.5,392692.4632474302,391077.4645806091,395066.84253870335
68.8,390847.9952226176,389397.9075485771,393034.93923130195
70,389228.65445841546,387923.9123463206,391250.284187779
71.5,387309.30251093896,386177.52395814017,389134.06061647576
73.2,385264.64336276264,384317.9550120106,386878.54941175494
75,383238.7901295755,382476.3507398412,384642.6166710282
76.5,381651.2040354337,381033.76088116365,382889.5741257245
78,380148.2531817969,379668.57404831855,381229.30957477615
80,378265.9515622722,377959.4994575666,379149.04430377606
82,376511.2780796569,376367.00791256694,377208.8709490187
84,374873.0761607378,374873.0761607378,375396.6340169586
86,373341.3711826016,373341.3711826016,373701.4559942121
88,371907.22440289747,371907.22440289747,372191.7781122952
90,370562.6074145576,370562.6074145576,370973.3118538632
92,369300.29390523944,369225.5276668749,369829.80945612653
94,368113.7660580963,367910.3191662373,368755.3000951668
96,366997.1333820372,366672.1630236406,367744.3911784439
98,365945.0621277293,365505.2154050259,366792.20287074446
100,364952.7137469171,364404.1714768627,365894.3110617288
102,364015.69110026583,363364.20725007507,365046.6975591268
104,363129.9913232299,362380.9285742822,364245.7064845576
106,362291.9644285986,361450.32629913883,363488.0060085174
