Frequency,Nominal,Min,Max
0.041,-66.21272624662308,-67.81447756032466,-64.67854342002579
0.042,-65.5833953190913,-67.18530925964272,-64.04903678489595
0.0432,-64.8475970535656,-66.44971138379633,-63.31302200363638
0.0445,-64.07309066490352,-65.67542853776695,-62.5382740729616
0.0458,-63.32077443545789,-64.92334257002456,-61.78570903043591
0.0475,-62.368399497650174,-63.97127889427416,-60.83299773590046
0.0488,-61.66270532454118,-63.26583051692851,-60.12703793656982
0.05,-61.02768484748326,-62.63104291394029,-59.49176578645976
0.0515,-60.25487015018466,-61.858527399457934,-58.71862773910459
0.053,-59.50409345244519,-61.10805888498482,-57.967517946108316
0.055,-58.53521994627882,-60.139610311739006,-56.99818512894198
0.0565,-57.83123616108406,-59.4359557587342,-56.29384545377343
0.058,-57.145547873391216,-58.7506057449925,-55.607791482778175
0.06,-56.25814478356471,-57.863667773853905,-54.71988555597652
0.0615,-55.61161679739627,-57.21749920818791,-54.07296897876846
0.063,-54.98051723850181,-56.58676815375521,-53.44147098699973
0.0645,-54.36411624686352,-55.970744763247495,-52.824661706199194
0.066,-53.761734301626596,-55.36874952850012,-52.22186160116365
0.0675,-53.17273769525893,-54.780148754626616,-51.63243695015283
0.0688,-52.672642698559144,-54.28040420116561,-51.131962974837364
0.07,-52.21923157820349,-53.82732266362826,-50.67819542102352
0.0715,-51.66313762442384,-53.27164892889135,-50.12164699501723
0.0732,-51.04664536287022,-52.65564399880325,-49.5046276537564
0.075,-50.409088836518734,-52.018616324575014,-48.86649911276094
0.0765,-49.88920464554795,-51.499182957820786,-48.34612728231485
0.078,-49.3792625464346,-50.989700889916904,-47.8356875665729
0.08,-48.71414838853961,-50.325214448415295,-47.16989437973152
0.082,-48.065186126076476,-49.676896316231065,-46.52023530426946
0.084,-47.43159036619046,-49.04396112526001,-45.88592492295625
0.086,-46.81263115667847,-48.42567894677554,-45.26623326126049
0.088,-46.20762888747375,-47.821370192756845,-44.66048068905722
0.09,-45.615949765221956,-47.23040109030262,-44.06803339543613
0.092,-45.03700178535625,-46.6521796535373,-43.48829936101791
0.094,-44.470231137462115,-46.08615208880049,-42.92072476357012
0.096,-43.915118989188244,-45.53179957837592,-42.36479076217922
0.098,-43.37117860186356,-44.988635395919445,-41.820010613139075
0.1,-42.83795273760624,-44.45620231337201,-41.28592707734213
0.102,-42.31501132328645,-43.93407026471884,-40.76211008453551
0.104,-41.80194934141411,-43.42183423666625,-40.24815462451352
0.106,-41.29838492201456,-42.91911236029829,-39.74367883930999
0.108,-40.80395761294953,-42.42554418117077,-39.248322293848176
0.11,-40.31832680903727,-41.94078908819594,-38.76174440540226
0.112,-39.84117032280359,-41.46452488414965,-38.28362301470338
0.115,-39.140661978261846,-40.76538600250808,-37.58163397793971
0.118,-38.45757458728158,-40.0837052621545,-36.89702602231928
0.12,-38.011418559152304,-39.63850761778662,-36.44983422022186
0.122,-37.57236031751616,-39.20042421557329,-36.00972262533951
0.125,-36.92656937637493,-38.55612630222614,-35.36231885071446
0.128,-36.2954737062457,-37.9265604425647,-34.7295712317361
0.13,-35.88256180333203,-37.51468875735092,-34.31553645665256
0.132,-35.47567678083456,-37.10886015446398,-33.90751142864658
0.135,-34.876246262388435,-36.51104448687588,-33.306339040455896
0.138,-34.28936940524638,-35.92581850205886,-32.7176824838548
0.14,-33.90481775858521,-35.542387296220866,-32.33192360400374
0.142,-33.52544380100205,-35.16414954744684,-31.95132599311773
0.145,-32.96576770286332,-34.60620707847623,-31.38978402715123
0.148,-32.41693279760738,-34.05914060346472,-30.839047391240463
0.15,-32.05684393266826,-33.70024979445202,-30.477671148737432
0.155,-31.17601731852753,-32.82248403515033,-29.593559439075776
0.16,-30.321453703726966,-31.971072913521592,-28.735619011467147
0.165,-29.491490194427506,-31.144350302569368,-27.902191990504647
0.17,-28.684615023206305,-30.340800642500774,-27.091772460588285
0.175,-27.899450366932882,-29.559041697538674,-26.302989375995864
0.18,-27.13473762220698,-28.797809765323347,-25.53459193616397
0.185,-26.389324737072663,-28.055946937319646,-24.78543702530188
0.19,-25.662155272824773,-27.332390083751697,-24.054478390529304
0.195,-24.95225892920186,-26.62616129607802,-23.34075729215582
0.2,-24.258743313672074,-25.936359567452683,-22.643394407059937
0.205,-23.580786773541973,-25.262153529672315,-21.96158280404999
0.21,-22.917632140282194,-24.60277509581719,-21.29458184062257
0.215,-22.268581260320236,-23.95751388270931,-20.64171185522192
0.22,-21.632990206790787,-23.325712307628304,-20.002349549130734
0.225,-21.010265083280895,-22.706761270371874,-19.375923968403953
0.23,-20.39985834417907,-22.10009634544396,-18.76191300950331
0.235,-19.801265567394594,-21.50519442046477,-18.159840383052085
0.24,-19.214022624397508,-20.921570726269767,-17.569272978841024
0.245,-18.637703200087714,-20.348776211950014,-16.98981858221518
0.25,-18.071916621210008,-19.78639522456553,-16.421123897525664
0.255,-17.516305957107217,-19.234043458659638,-15.862872838652162
0.26,-16.970546360721684,-18.69136614519433,-15.314785049861976
0.27,-15.90743290088694,-17.633754080987664,-14.248148975404092
0.275,-15.389577635541054,-17.118244014672335,-13.729207864738415
0.28,-14.880568569907862,-16.611255437088086,-13.21964249523716
0.285,-14.380222911924161,-16.112560767734042,-12.719334696993387
0.29,-13.888383581240424,-15.621954818947177,-12.228196137329832
0.295,-13.404918532007088,-15.139254052826967,-11.746167533311091
0.3,-12.929720128591295,-14.66429592458709,-11.273217830245965
0.305,-12.462704552671601,-14.1969382983815,-10.809343310369272
0.31,-12.00381121961003,-13.737058921862921,-10.354566595060072
0.315,-11.553002181342913,-13.284554945750122,-9.908935503558167
0.32,-11.110261492349975,-12.839342474537485,-9.472521731426093
0.33,-10.249027137388564,-11.970548642455029,-8.627742836443383
0.34,-9.420391899430955,-11.130368853037302,-7.821216135312064
0.35,-8.624936058134441,-10.318769059018384,-7.054183299105849
0.36,-7.863495418168299,-9.535972104954434,-6.328050426079329
0.37,-7.137107819718463,-8.78243527965989,-5.64427732038796
0.39,-5.794234376708682,-7.3659596747332055,-4.409147641465227
0.4,-5.180159199896459,-6.70480142597571,-3.859803314205401
0.41,-4.605764333981205,-6.076360048884233,-3.3565911842922986
0.42,-4.071851776229632,-5.481646497816617,-2.8993343988427265
0.432,-3.485222099580987,-4.8138186592887555,-2.41015100536673
0.445,-2.916217778738939,-4.14817397811808,-1.950675959515584
0.458,-2.415129501775395,-3.5436555672087486,-1.548106952779425
0.475,-1.8578215203458859,-2.8454393754330005,-1.1105188180328225
0.488,-1.5014572319830635,-2.380733150832598,-0.8416561506410415
0.5,-1.221437513689482,-2.002926379378086,-0.6374786178046048
0.515,-0.9305643247296352,-1.6115514039925944,-0.433225626845126
0.53,-0.6970461561025008,-1.2865331093164387,-0.27632129466159105
0.55,-0.4597883278691104,-0.9408651740913432,-0.10316474710525628
0.565,-0.32697261034084957,-0.7514262268537591,0.018982871265031995
0.58,-0.22495533358408343,-0.672855527975893,0.1392949559647925
0.6,-0.12656708682197354,-0.5951994487239071,0.2781946437006583
0.615,-0.07464280699333926,-0.5523811417728646,0.3517184222670793
0.63,-0.0370548248795877,-0.5194948906785778,0.4045987187212484
0.645,-0.010648334107078366,-0.49425148634624794,0.44102938192043634
0.66,0.007105928847154678,-0.47485495756077795,0.46447710620677823
0.675,0.018219936672204867,-0.45990348050157975,0.47777287358268805
0.688,0.023719401242517053,-0.4508802864434004,0.48286598573053674
0.7,0.026151224820457914,-0.44493941100965706,0.483384361824043
0.715,0.02644259074913363,-0.4389762687219106,0.4796110065274434
0.732,0.024041845522937928,-0.433626796999036,0.47085219795278865
0.75,0.019313738461105588,-0.4290437598319278,0.4578928547625014
0.765,0.014237181217578908,-0.4257565437659138,0.44736036723437295
0.78,0.008508990577235987,-0.4227518490894632,0.43531360158783206
0.8,0.00031390468371722297,-0.41895483797037447,0.41765024100293013
0.82,-0.008102549799102557,-0.41519827041359786,0.3989520911740024
0.84,-0.016424274576982676,-0.41134234689737004,0.37985252824355953
0.86,-0.024442364540310846,-0.4073053536852867,0.36079790559631775
0.88,-0.032024512387554646,-0.4030454362089807,0.34209706414220475
0.9,-0.039092812635655456,-0.39854768128453727,0.3239580616416268
0.92,-0.04560767054908713,-0.393814984332744,0.3065153789005156
0.94,-0.051556148058525444,-0.38886161714648976,0.2898500540341968
0.96,-0.05694353614842251,-0.383708723525118,0.2740045737238067
0.98,-0.061787275310962377,-0.3783811913325871,0.25899387939224505
1,-0.06611258617276325,-0.3729055067107129,0.2448134939302098
1.02,-0.0699493464321346,-0.36730830805261394,0.23144551297993998
1.04,-0.0733298762363509,-0.3616154371560485,0.21886301128952995
1.06,-0.07628738546292718,-0.35585134206146907,0.20703327182065223
1.08,-0.07885490270365615,-0.3500387270119899,0.19592013991271534
1.1,-0.08106455403443362,-0.3441983743933727,0.18548572701369315
1.12,-0.08294709488151747,-0.3383490847049831,0.17569163099022422
1.15,-0.08522073429729647,-0.3295947063490639,0.16211808298071323
1.18,-0.08691391651835474,-0.32090661903425466,0.14977581362307735
1.2,-0.08776062364957579,-0.31517158131106476,0.14217371842086385
1.22,-0.08840725058046005,-0.3094939971695011,0.13503439715210783
1.25,-0.08904520227718501,-0.3011037024215937,0.12512663797492735
1.28,-0.08933781080806943,-0.2928852439931327,0.11609600785446657
1.3,-0.08936733339508367,-0.2875108762842194,0.1105197356162719
1.32,-0.08928080316219336,-0.2822251990386746,0.10527106858506385
1.35,-0.08896070070482721,-0.27447012264827775,0.09796475731586307
1.38,-0.08844543258085255,-0.26693034277308914,0.09127883512547785
1.4,-0.08800982529729873,-0.2620261574296722,0.08713597117058673
1.42,-0.08751064261057102,-0.2572209939501,0.08322533873893034
1.45,-0.0866593891303567,-0.2501998915844391,0.07776183013918703
1.48,-0.08570540556031263,-0.243402739786843,0.0727399926131172
1.5,-0.08502225642183744,-0.2389950741214131,0.06961658185122711
1.55,-0.08318610095755993,-0.228403367072014,0.06251264023012744
1.6,-0.08121875815975318,-0.21840816141710967,0.0562939858172985
1.65,-0.07917248983585083,-0.20898741104556567,0.05083060870749063
1.7,-0.07708735567899475,-0.20011571451074614,0.04601390109825901
1.75,-0.07499386641066685,-0.19176582741934062,0.04175287058096361
1.8,-0.07291506645441295,-0.18390974748703356,0.037971042586424524
1.85,-0.07086816695520562,-0.17651948097196998,0.03460393187407331
1.9,-0.06886582588042862,-0.1695675728990626,0.03159697929694776
1.95,-0.06691715173295593,-0.16302746315222283,0.028903866893750674
2,-0.06502849098816041,-0.15687371498311342,0.02648513974941858
2.05,-0.06320404627774202,-0.15108215072282707,0.024307076363040532
2.1,-0.06144636202813459,-0.14562992061787525,0.022340760386316293
2.15,-0.05975670618842267,-0.14049552405377894,0.020561315727118404
2.2,-0.058135370390126444,-0.13565879743892348,0.018947274421110924
2.25,-0.056581905986354535,-0.1311008792867916,0.017480052642317175
2.3,-0.05509530961267415,-0.12680416024284352,0.016143515012630873
2.35,-0.0536741689536455,-0.1227522237179336,0.014923611205044474
2.4,-0.05231677709615341,-0.11892978123504866,0.013808071904320877
2.45,-0.05102122205695528,-0.11532260543863429,0.012786153645846664
2.5,-0.049785456670811405,-0.11191746285461311,0.011848424023256261
2.55,-0.048607352930860916,-0.10870204785167882,0.010986580335608667
2.6,-0.04748474401431069,-0.105664918782761,0.010193296017660823
2.7,-0.04539733517785978,-0.10008370869863267,0.008787216744713425
2.75,-0.04442826094915238,-0.09752053105912178,0.008163569179313893
2.8,-0.04350616495233858,-0.09509734063164486,0.007586599685709686
2.85,-0.0426290380801886,-0.09280616605775766,0.007052249259581985
2.9,-0.04179493781257559,-0.09063958376636894,0.0065568877072735635
2.95,-0.04100199264169346,-0.08859067693621923,0.0060972618502103774
3,-0.04024840465856699,-0.08665299750596102,0.005670450721226366
3.05,-0.03953245071291164,-0.08482053105836065,0.005273826716639091
3.1,-0.03885248247429688,-0.08308766439874306,0.004905021834694978
3.15,-0.03820692565611198,-0.08144915564656247,0.004561898268141533
3.2,-0.037594278610689466,-0.07990010666259864,0.004242522733230099
3.3,-0.036462058897751136,-0.07705236369675011,0.003668173267504117
3.4,-0.035445184417330855,-0.07451120845527201,0.003169810563751813
3.5,-0.03453403255035142,-0.07224748236999576,0.0027373640261744263
3.6,-0.033719911986280555,-0.0702355308351811,0.002362447345461702
3.7,-0.032994977572728325,-0.06845272366966064,0.002038039061325299
3.9,-0.03178503126423366,-0.06549675696312227,0.0015180267041811045
4,-0.03128784958759903,-0.06429008069567299,0.0013131848875063395
4.1,-0.03085537942375228,-0.06324496502321805,0.001140087786771543
4.2,-0.030482891105853404,-0.06234885777938369,0.0009956389261349874
4.32,-0.03010907255049572,-0.06145448026753786,0.0008563973160374328
4.45,-0.029786916104823077,-0.06068955775236569,0.0007432871988777158
4.58,-0.029543567889060908,-0.06011809355492878,0.0006653950027184609
4.75,-0.02933325155463297,-0.059634973729901425,0.0006110110245132605
4.88,-0.029247525530596057,-0.05944910609411012,0.0006021587940971398
5,-0.029221232799597263,-0.05940662255721558,0.000616945463389315
5.15,-0.02925408717800019,-0.05951415187761718,0.0006640614293848014
5.3,-0.029354122847203047,-0.05978612811279789,0.0007406947306231172
5.5,-0.029582454138001795,-0.06038188690467377,0.0008853150712919012
5.65,-0.029818599372499574,-0.060988739440094995,0.001023508883455494
5.8,-0.030105576714294122,-0.061721663224157244,0.0011857324706317346
6,-0.030560707364525645,-0.06287997898983641,0.0014376300790711137
6.15,-0.03095201176425647,-0.06387457305191983,0.0016521905394031385
6.3,-0.03138273475584388,-0.06496947377969396,0.0018880103366649497
6.45,-0.031850111742223096,-0.06615860994224997,0.002144593050185311
6.6,-0.03235161439929647,-0.0674364997685725,0.002421557248514003
6.75,-0.03288492083593021,-0.0687981749139202,0.0027186202517657312
6.88,-0.03337118628910914,-0.07004256233472891,0.002992177975083746
7,-0.033838696855734915,-0.07124172589784755,0.003257886742739665
7.15,-0.034446767390872685,-0.07280577541343085,0.003607777651527414
7.32,-0.03516565616021078,-0.07466160303844624,0.004028150208921407
7.5,-0.03595873326506928,-0.0767179099584284,0.00450090381727737
7.65,-0.036642826895610214,-0.07849956987202791,0.004916696309640133
7.8,-0.03734647599642285,-0.08034014987919598,0.005352471049675781
8,-0.03831275886560381,-0.082881472163248,0.005964874749810082
8.2,-0.03930836674155961,-0.08551729902992955,0.006613567960459503
8.4,-0.0403304443222741,-0.0882424060427779,0.007299105795743229
8.6,-0.04137629086175502,-0.09105195321185415,0.008022116201745913
8.8,-0.04244333838892804,-0.09394143191295833,0.008783290614551567
9,-0.04352913326206692,-0.0969066199328961,0.009583376042447217
9.2,-0.0446313205156345,-0.09994354328061693,0.010423168301573004
9.4,-0.04574763055363883,-0.10304844365418159,0.011303506189921427
9.6,-0.04687586782183426,-0.10621775065401698,0.012225266428255919
9.8,-0.04801390115458739,-0.10944805799377424,0.013189359229834425
10,-0.04915965554362505,-0.11273610308997767,0.014196724388163242
10.2,-0.050311105118391014,-0.11607874951756116,0.015248327792098233
10.4,-0.05146626716176599,-0.11947297190367834,0.016345158295169124
10.6,-0.05262319701356614,-0.12291584290301848,0.017488224878592265
10.8,-0.05377998373757022,-0.12640452195506527,0.01867855405844478
11,-0.054934746447227775,-0.12993624557152839,0.01991718749616317
11.2,-0.05608563120119567,-0.13350831894127255,0.021205179778138038
11.5,-0.05780069101174122,-0.13893633947251063,0.023232049146397725
11.8,-0.059496830641909956,-0.144440573974577,0.025376006554801937
12,-0.060614120376632746,-0.14814823756926956,0.026872168110563067
12.2,-0.06171858924418397,-0.15188358487497802,0.028423086227092404
12.5,-0.06334746518671032,-0.1575332616903944,0.03085452063586715
12.8,-0.06493781260913015,-0.16323185094260012,0.033415298680736
13,-0.0659738183506938,-0.16705421828419625,0.03519615656563507
13.2,-0.06698849058693997,-0.170892567691554,0.03703721708431516
13.5,-0.06846687812578867,-0.17667513563879275,0.0399140425508108
13.8,-0.0698880122197372,-0.18248109931173406,0.042932349104601135
14,-0.07080093271310717,-0.1863610910540063,0.045024911147588165
14.2,-0.07168438822121342,-0.19024604214026103,0.047182972334190346
14.5,-0.07295087619210418,-0.19607810393149044,0.050545112195365546
14.8,-0.07414226508127997,-0.20190941516640495,0.054060319377504
15,-0.07489224861979878,-0.20579307776863562,0.05649046384442642
15.5,-0.07660129520209338,-0.2154737788743561,0.06287610123714717
16,-0.07805504091108549,-0.22508884300139603,0.06971632126137303
16.5,-0.07923137797172985,-0.23460931067412552,0.07702442206559743
17,-0.08010916440375546,-0.24403393213651356,0.08481253620117449
17.5,-0.08066833236599207,-0.2533017573395205,0.09309145636863506
18,-0.08089000547127807,-0.2623856226059844,0.10187045281435556
18.5,-0.08075662455826409,-0.27125947371472586,0.11115708146533844
19,-0.08025208165172065,-0.27989845769029376,0.12095698191358153
19.5,-0.0793618620327703,-0.2882790202552003,0.13127366437544885
20,-0.07807319448931842,-0.2963790085256382,0.14211273265572333
20.5,-0.07637520993328527,-0.30417777872191304,0.15346910493352228
21,-0.07425910866129702,-0.311656308814053,0.1653373277369259
21.5,-0.0717183366039959,-0.31879731614111895,0.1777100471096556
22,-0.06874877095791336,-0.3255853801355821,0.1905765156285344
22.5,-0.06534891562451274,-0.332007070356054,0.2039222962922502
23,-0.06152010689405161,-0.33805108008678997,0.21773990703753562
23.5,-0.05726672980664629,-0.34370836580167313,0.23200696063748943
24,-0.0525964455980131,-0.34897229281617953,0.2466832850351933
24.5,-0.04752043059200441,-0.353838787463028,0.2617364984254668
25,-0.04205362683219302,-0.3583064961265492,0.2771287827584724
25.5,-0.036215004649637714,-0.3623769514563625,0.2928164862367673
26,-0.030027837238402737,-0.36605474605278804,0.3087497094848555
27,-0.016724204435335576,-0.3722671195435753,0.34111929326959634
27.5,-0.00967843587487845,-0.37482785569795685,0.3574206932006397
28,-0.002426144550095789,-0.37704864833593227,0.3736967779652975
28.5,0.0049833614524502755,-0.3789522701094873,0.38985975229414044
29,0.012494592709701175,-0.38056576127063285,0.40581286093566804
29.5,0.020045536516221298,-0.38192065785487,0.42144993271277753
30,0.027567311846849674,-0.3830532264671737,0.4366549390507437
30.5,0.03498382434676623,-0.3840047048009446,0.45130157550605576
31,0.04221142513469206,-0.38482154674893454,0.46525287623672906
31.5,0.049158577943491176,-0.3855556706543374,0.4783608728475122
32,0.055725539932073395,-0.38626470890019254,0.4904663105841365
33,0.06727711837274736,-0.38786811706046365,0.5109748749039923
34,0.07589345371638367,-0.390216450461923,0.5328265720722082
35,0.08045494167113086,-0.3940010744635545,0.5513986865169397
36,0.07969187117234384,-0.4052178332612155,0.5625661045069005
37,0.0721861880489677,-0.42637451759415945,0.5644952552516599
39,0.030591441486958536,-0.5227379542224904,0.5542671497566943
40,-0.006957474975977318,-0.5881179283515765,0.5462723497466305
41,-0.0581051668966238,-0.6670609478564761,0.5251810941808951
42,-0.12470144904551275,-0.7611127470946275,0.48885427330558007
43.2,-0.22754025296444452,-0.8959706885910164,0.42212734928948636
44.5,-0.37031345999185994,-1.0715980467015986,0.3174498184383856
45.8,-0.5487279507018001,-1.2801728541966997,0.17512546959784908
47.5,-0.8395084267101325,-1.6051003600563232,-0.073089022816011
48.8,-1.1072166954191123,-1.8941275384897451,-0.31287281633472713
50,-1.389102896244012,-2.2213816574519725,-0.5731572129773396
51.5,-1.786717045701972,-2.7354092607951523,-0.9498358606438572
53,-2.231115884782727,-3.289203884309135,-1.336706050329576
55,-2.8875074644746905,-4.07643489358257,-1.8683833394497
56.5,-3.419840991598791,-4.693969410431712,-2.2948222786177865
