Frequency,Nominal,Min,Max
0.041,0.0004890617388712576,0.00040670182570966214,0.0005835429532852805
0.042,0.0005258116861319976,0.0004372547510064179,0.0006274052677548675
0.0432,0.0005722952579120758,0.00047589860396505493,0.0006828870858673888
0.0445,0.0006256701946187012,0.0005202697471594168,0.0007465970960190295
0.0458,0.000682277859414955,0.0005673262406017812,0.0008141689740491916
0.0475,0.0007613424145693252,0.0006330471461613223,0.0009085526787981731
0.0488,0.0008257807102091926,0.0006866073911049877,0.000985480654272849
0.05,0.0008884147444141496,0.0007386655661647647,0.0010602583726362538
0.0515,0.0009710833156340349,0.0008073718999958695,0.0011589604428090686
0.053,0.0010587546417943816,0.0008802318031413507,0.0012636421468269479
0.055,0.0011836927910912252,0.0009840552539364523,0.0014128327177663472
0.0565,0.0012836250741284432,0.0010670928551982507,0.0015321727261987982
0.058,0.0013890651206210356,0.0011547014541919449,0.0016580988796696832
0.06,0.001538483209356998,0.0012788411763307857,0.0018365625414709006
0.0615,0.0016573688043796946,0.0013776060442776217,0.0019785705979317356
0.063,0.0017822726312303147,0.0014813633384816371,0.0021277786684119776
0.0645,0.0019133489732280702,0.0015902403243504186,0.00228437245445096
0.066,0.002050752666509541,0.0017043646719655913,0.002448538403211824
0.0675,0.0021946391144153058,0.0018238644665323708,0.002620463727036408
0.0688,0.0023247050822904104,0.001931878414231065,0.002775887436227251
0.07,0.0024492799147362194,0.002035325467365293,0.0029247599623652577
0.0715,0.0026112179275934967,0.002169789251774885,0.0031182982447105875
0.0732,0.002803288089777956,0.0023292590956259284,0.0033478702436328684
0.075,0.0030167933229272555,0.002506508511846721,0.0036030894528767247
0.0765,0.003202873363720292,0.0026609753538896336,0.0038255478270053226
0.078,0.003396541088422095,0.002821726751305709,0.004057099152515693
0.08,0.003666845237623986,0.003046065779009228,0.004380314375927163
0.082,0.003951306270705301,0.003282125506460431,0.004720502530577615
0.084,0.0042503087751454656,0.0035302214036601965,0.005078129289595155
0.086,0.004564239678922577,0.0037906706499522573,0.00545366348980218
0.088,0.004893488315087075,0.0040637921808327725,0.005847577219538714
0.09,0.005238446486706542,0.0043499067350358704,0.006260345906954357
0.092,0.005599508532167066,0.004649336901889058,0.006692448408737967
0.094,0.005977071390814264,0.004962407168931106,0.007144367099249988
0.096,0.0063715346689149095,0.005289443969783759,0.007616587960017893
0.098,0.006783300705917462,0.005630775732267407,0.008109600669550845
0.1,0.007212774640987276,0.005986732926749415,0.008623898693424682
0.102,0.007660364479789523,0.006357648114712325,0.009159979374583233
0.104,0.008126481161489911,0.006743855997527725,0.009718344023796625
0.106,0.00861153862594023,0.007145693465419892,0.010299498010211414
0.108,0.009115953881012585,0.007563499646601633,0.010903950851921347
0.11,0.00964014707004261,0.00799761595656302,0.011532216306481222
0.112,0.01018454153933867,0.008448386147491795,0.012184812461279369
0.115,0.011039944778940864,0.00915652530317214,0.013210470971973077
0.118,0.011943215554306313,0.009904093619088934,0.01429383283899485
0.12,0.012572715029621753,0.010424965324787035,0.015049022412465305
0.122,0.013224582922505689,0.010964246458694144,0.015831201211589027
0.125,0.014245297751527683,0.011808471476508113,0.017056269811523903
0.128,0.01531885532794976,0.01269614804356995,0.018345157234960174
0.13,0.016064673740430004,0.013312682122410987,0.01924080229751188
0.132,0.016835117852110577,0.01394944703618621,0.02016621664863115
0.135,0.01803797110441656,0.01494334336370186,0.02161140728092466
0.138,0.019298854406014594,0.015984868758059052,0.023126817635190665
0.14,0.02017247157014332,0.016706313821205986,0.024177078455739485
0.142,0.021073070007935246,0.017449883129809995,0.02526002059707526
0.145,0.02247561658847459,0.01860756934157318,0.02694702334733498
0.148,0.02394161044611775,0.019817230911224153,0.028710954468009916
0.15,0.024955013168024218,0.020653207591215066,0.029930670269043336
0.155,0.027618439353143384,0.0228494524959571,0.03313767452621257
0.16,0.03047384924943922,0.025202658477627638,0.03657792368051152
0.165,0.03352937748479983,0.027719314431239477,0.04026154165781899
0.17,0.03679334297699592,0.030406047377971944,0.04419889145012742
0.175,0.040274251860069235,0.03326962571975063,0.048400576125187
0.18,0.0439807994007454,0.03631696201076319,0.052877437816873256
0.185,0.04792187071288198,0.039555115149660376,0.05764055432427882
0.19,0.052106540052337724,0.04299129188338541,0.062701232898163
0.195,0.05654406844652302,0.046632847499472684,0.06807100073960297
0.2,0.06124389938217867,0.05048728556818354,0.07376159167755646
0.205,0.06621565224160579,0.05456225657894096,0.0797849284298355
0.21,0.07146911314166952,0.058865555297136926,0.08615309978619916
0.215,0.07701422279154754,0.06340511664749401,0.09287833198369679
0.22,0.08286106094463697,0.06818900990877273,0.09997295347421398
0.225,0.08901982697765884,0.07322543098177518,0.1074493522140512
0.23,0.0955008160863798,0.07852269246840422,0.11531992453753045
0.235,0.1023143905433224,0.08408921127416803,0.12359701461403871
0.24,0.10947094541943507,0.08993349342021616,0.13229284343434367
0.245,0.11698086813037625,0.09606411572411898,0.1414194262322153
0.25,0.12485449113065135,0.10248970398163593,0.1509884772272073
0.255,0.1331020370476228,0.1092189072552886,0.1610113005809586
0.26,0.1417335555252185,0.11626036785048072,0.17149866650095402
0.27,0.16018740093825165,0.13131438255632866,0.1939065820583315
0.275,0.17002826304346233,0.13934384793548063,0.20584466080770825
0.28,0.18028997209304823,0.14771929563283615,0.21828197532330307
0.285,0.19098042453252656,0.15644870102920208,0.23122418915011642
0.29,0.20210675117740512,0.16553973630296473,0.24467533585804296
0.295,0.2136751774999171,0.17499969725099154,0.25863757719192
0.3,0.22569087150540698,0.1848354221650174,0.2731109472151135
0.305,0.23815777945559274,0.19505320244086521,0.2880930851978505
0.31,0.2510784500536388,0.20565868469086268,0.30357896099116854
0.315,0.26445384813667133,0.21665676425201696,0.3195605977284864
0.32,0.2782831594279378,0.22805147013788066,0.3360267978839683
0.33,0.30729015261668174,0.2520417972921626,0.37035043421852076
0.34,0.338049583372519,0.2776396941753516,0.4063864258998359
0.35,0.3704701294459219,0.30483269597387386,0.4439058159065725
0.36,0.4044131130446622,0.33358106796787124,0.4826112914523657
0.37,0.43968799598302827,0.36381301886746187,0.5221390010908917
0.39,0.5132019302435168,0.4282545800066874,0.6019253277782638
0.4,0.5507976009830238,0.46212549492620275,0.6412240964844758
0.41,0.5884530027473949,0.49680046945217554,0.6794702413916975
0.42,0.6257594417807467,0.5320074023493545,0.7161982905034
0.432,0.6694819848258772,0.5745251794106404,0.7576915601810537
0.445,0.7148075171868643,0.6202850315631527,0.798851770434449
0.458,0.7572573981057835,0.664993226436448,0.8367479410111255
0.475,0.8074375156255456,0.7206560405197482,0.8799825477625214
0.488,0.8412539925959259,0.7602621027057413,0.9076474512779547
0.5,0.8688166283397093,0.7940606611849499,0.9292360907944199
0.515,0.8984042210957587,0.8306583399159725,0.951346486653716
0.53,0.9228852229222977,0.8623297007673816,0.9686880345477137
0.55,0.9484415762129461,0.8973394088987567,0.9881929760279614
0.565,0.9630556189629124,0.9171253306475291,1.0021878737303376
0.58,0.9744335610006246,0.9254590859800066,1.0161662060984415
0.6,0.9855340772282271,0.933770237976568,1.0325467693069934
0.615,0.9914432484499688,0.9383847534773757,1.0413241035087903
0.63,0.9957429924846378,0.9419443716890441,1.0476830939691666
0.645,0.9987748163820346,0.9446858834292801,1.0520865512884134
0.66,1.0008184350270866,0.9467978261606972,1.0549305158858067
0.675,1.002099849330959,0.9484290023920896,1.0565465681162949
0.688,1.0027345290082357,0.9494147742509487,1.0571662729875415
0.7,1.0030153079448985,0.9500643662324787,1.057229366821175
0.715,1.0030489543991525,0.9507168398890119,1.0567701811995247
0.732,1.00277175398214,0.9513025483792334,1.0557050764374658
0.75,1.0022260502926914,0.951804627675767,1.0541311394164021
0.765,1.001640460146895,0.9521649108155619,1.0528536773767996
0.78,1.0009801137408416,0.9524943485426368,1.0513944497649683
0.8,1.000036140265311,0.9529108196697366,1.0492585385367938
0.82,0.9990675944413242,0.9533230339872704,1.047002224887209
0.84,0.9981108721622814,0.9537463362520604,1.0447024817840782
0.86,0.9971899244630933,0.9541897177064201,1.0424131834433175
0.88,0.9963198302433224,0.9546578063595815,1.0401712676342973
0.9,0.9955093867103002,0.9551522783065582,1.03800131351807
0.92,0.9947629841172793,0.9556728557281207,1.035918929204276
0.94,0.9940819600972305,0.9562180098582822,1.0339332518656217
0.96,0.9934655759370211,0.9567854533479456,1.0320487892464039
0.98,0.9929117182642275,0.9573724823184415,1.030266773694979
1,0.9924174012866113,0.9579762112095719,1.0285861558836167
1.02,0.9919791241543252,0.9585937312786745,1.0270043323623996
1.04,0.9915931231057596,0.9592222148680877,1.0255176765213592
1.06,0.9912555472542811,0.959858981311364,1.024121924344798
1.08,0.9909625790386374,0.9605015358734855,1.0228124529154963
1.1,0.9907105146705918,0.9611475899075933,1.0215844797286282
1.12,0.9904958157747746,0.9617950680994919,1.0204332035792494
1.15,0.9902365751328819,0.962764935650042,1.018839805228022
1.18,0.9900435623701924,0.9637284259681947,1.0173931065080237
1.2,0.9899470568741756,0.9643649576504938,1.0165030496532952
1.22,0.989873362338893,0.9649955266857712,1.0156678835993123
1.25,0.9898006618755687,0.9659281322131954,1.0145099992485274
1.28,0.989767318228428,0.966842511434173,1.0134557717664607
1.3,0.9897639541007065,0.9674409274027777,1.0128053500063752
1.32,0.9897738143378989,0.9680298292797643,1.0121935218036135
1.35,0.9898102913001394,0.9688945072701854,1.0113424528032458
1.38,0.9898690109985453,0.9697359205494435,1.0105642763030342
1.4,0.989918655304603,0.970283602793636,1.0100823876065619
1.42,0.9899755480898442,0.970820526633539,1.009627722393532
1.45,0.9900725745847863,0.9716055914016947,1.0089928564794908
1.48,0.9901813216307611,0.9723662199249732,1.0084096653597951
1.5,0.9902592029010635,0.9728597736078127,1.0080471105157187
1.55,0.9904685610811168,0.974046817340112,1.007222994565841
1.6,0.9906929263407114,0.9751683377025739,1.0065021323034056
1.65,0.990926346571592,0.9762265829363679,1.005869247024758
1.7,0.9911642568474267,0.9772242021657518,1.00531160294574
1.75,0.9914031778907059,0.9781640753831401,1.0048185489175427
1.8,0.9916404794925173,0.9790491904060747,1.0043811471168254
1.85,0.9918741950555968,0.9798825550591904,1.0039918712624407
1.9,0.9921028762229371,0.9806671356296554,1.003644361270108
1.95,0.9923254788795455,0.9814058148182981,1.003333223527834
2,0.9925412736950839,0.982101364077225,1.0030538679815901
2.05,0.992749775868818,0.9827564264950657,1.002802374916392
2.1,0.9929506899125525,0.9833735073532319,1.0025753857145043
2.15,0.9931438662246086,0.9839549702028875,1.0023700130055522
2.2,0.9933292669220604,0.9845030368594818,1.0021837665342177
2.25,0.9935069389535008,0.9850197901232356,1.0020144917996086
2.3,0.9936769929458311,0.9855071783432207,1.0018603191013435
2.35,0.9938395865737175,0.9859670211748098,1.0017196210902202
2.4,0.993994911501196,0.986401016054429,1.0015909772900973
2.45,0.994143183148068,0.986810745045939,1.0014731443517493
2.5,0.9942846326924387,0.9871976818105946,1.0013650310344755
2.55,0.994419500844776,0.9875631985252844,1.0012656770992427
2.6,0.9945480330261751,0.9879085726279885,1.0011742354481659
2.7,0.9947870733451724,0.9885435677002555,1.0010121776206344
2.75,0.9948980667304693,0.9888353267221542,1.0009403074470054
2.8,0.9950036909393607,0.9891112305922457,1.0008738211265618
2.85,0.9951041744337665,0.9893721739747895,1.000812249897289
2.9,0.9951997382213621,0.9896189907873914,1.0007551745954204
2.95,0.9952905953334342,0.9898524586716886,1.0007022196530757
3,0.9953769505142228,0.9900733031427824,1.0006530479080578
3.05,0.9954590000746342,0.9902822014338161,1.0006073561051108
3.1,0.9955369318727951,0.9904797860532618,1.000564870987431
3.15,0.9956109253914928,0.9906666480730033,1.000525345893242
3.2,0.9956811518886075,0.9908433401652219,1.0004885577856093
3.3,0.995810948990893,0.9911682498606221,1.0004224032413485
3.4,0.9959275373957979,0.9914582697633746,1.0003650045255321
3.5,0.9960320159086449,0.9917166983797115,1.0003152003452311
3.6,0.996125377462107,0.99194644076914,1.000272023793796
3.7,0.9962085187098069,0.9921500619062388,1.0002346654477068
3.9,0.9963473004382428,0.9924877661329821,1.0001747845560316
4,0.996404333145272,0.9926256558224917,1.0001511974264947
4.1,0.9964539453198417,0.9927450990905708,1.0001312660717632
4.2,0.9964966784684499,0.9928475240582755,1.000114633737411
4.32,0.9965395660689513,0.9929497618547501,1.0000986012454627
4.45,0.9965765280396517,0.9930372097853459,1.0000855777627653
4.58,0.9966044490157772,0.9931025460841288,1.0000766093650582
4.75,0.9966285806523687,0.9931577852008715,1.0000703477181196
4.88,0.9966384169996901,0.9931790378154308,1.0000693284962543
5,0.996641433891057,0.9931838955632541,1.0000710309939411
5.15,0.9966376641018657,0.9931716002506588,1.000076455820004
5.3,0.99662618586006,0.9931405021300306,1.0000852792683297
5.5,0.9965999872826025,0.9930723856883477,1.000101930858885
5.65,0.9965728928629886,0.9930030056399878,1.000117842757792
5.8,0.996539967149317,0.9929192186192424,1.0001365218138125
6,0.9964877509665847,0.9927868156819516,1.000165526977544
6.15,0.9964428596227705,0.9926731412764604,1.0001902335574495
6.3,0.9963934484253032,0.9925480176461018,1.000217388848363
6.45,0.9963398351677483,0.9924121427960471,1.0002469358830417
6.6,0.9962823105305508,0.9922661473772332,1.000278830947237
6.75,0.9962211414989417,0.9921106033507988,1.0003130417105945
6.88,0.9961653712341422,0.9919684784131186,1.000344546562587
7,0.9961117549296118,0.9918315378813249,1.0003751484230003
7.15,0.9960420228662468,0.9916529569826349,1.000415447026184
7.32,0.9959595887319246,0.9914411029942202,1.000463865483505
7.5,0.9958686554227314,0.9912064159348687,1.0005183199831371
7.65,0.9957902247028988,0.9910031193582275,1.000566215821162
7.8,0.9957095584102517,0.990793143482525,1.0006164159087327
8,0.9955987944455448,0.9905032990926743,1.0006869674381451
8.2,0.9954846818749767,0.9902027657887587,1.0007617050999642
8.4,0.9953675490587545,0.9898921487582458,1.0008406937949685
8.6,0.9952477065232904,0.9895720089623319,1.0009240068906005
8.8,0.9951254494580922,0.9892428691948821,1.0010117251507806
9,0.9950010598303217,0.9889052192130806,1.0011039358298779
9.2,0.9948748081792906,0.9885595200950189,1.0012007318996605
9.4,0.9947469551420245,0.9882062079509637,1.00130221138446
9.6,0.9946177527520651,0.9878456970921933,1.0014084767848066
9.8,0.9944874455464072,0.9874783827429537,1.0015196345736297
10,0.9943562715095742,0.987104643366272,1.0016357947522667
10.2,0.9942244628789642,0.9867248426622779,1.0017570704558323
10.4,0.9940922468316974,0.9863393312879509,1.0018835775995236
10.6,0.9939598460699072,0.9859484483391181,1.002015434558885
10.8,0.9938274793187412,0.9855525226289927,1.0021527618783206
11,0.9936953617491131,0.9851518737920839,1.002295682003145
11.2,0.9935637053354095,0.9847468132378361,1.0024443190312193
11.5,0.9933675420142316,0.9841316136082096,1.0026782686727373
11.8,0.9931735808165254,0.9835081685228294,1.0029257925213393
12,0.9930458343994663,0.9830884372785993,1.003098563339229
12.2,0.9929195700184036,0.9826657532006352,1.0032776886447057
12.5,0.9927333840056685,0.9820267928869405,1.0035585747090559
12.8,0.9925516356162423,0.981382721616068,1.0038544879358393
13,0.9924332565078026,0.9809509431624457,1.0040603281588287
13.2,0.9923173287562211,0.9805175505209616,1.0042731712672703
13.5,0.9921484451077683,0.9798649953235321,1.0046058484316693
13.8,0.9919861289029054,0.9792102368772954,1.0049550049882126
14,0.9918818728146571,0.9787729208006738,1.0051971429982747
14.2,0.9917809920784442,0.9783352414338582,1.0054469212635786
14.5,0.9916363912167351,0.977678567595856,1.005836185651178
14.8,0.9915003840134161,0.9770224189530224,1.0062433331382903
15,0.9914147765633012,0.9765856672296255,1.0065249000103607
15.5,0.9912197237335433,0.9754978376706733,1.0072651426886816
16,0.9910538384990712,0.9744185832536669,1.0080586859104856
16.5,0.9909196283642507,0.9733511234169404,1.00890719940497
17,0.9908194921788493,0.9722955618985654,1.0098122314130151
17.5,0.9907557086510327,0.9712586779402695,1.0107751886558958
18,0.9907304238384027,0.9702434484785577,1.0117973151190542
18.5,0.9907456376562847,0.9692527152662311,1.0128796695056965
19,0.9908031894124113,0.9682891759704295,1.0140231012145893
19.5,0.9909047423535523,0.9673553747319793,1.0152282246950783
20,0.9910517671908531,0.966453692217171,1.0164959125606998
20.5,0.9912455245557511,0.9655863351703278,1.0178258000202773
21,0.991487046326654,0.96475532545763,1.0192174870458497
21.5,0.9917771157576111,0.9639624885785072,1.0206703581185936
22,0.992116246333848,0.963209441609817,1.0221834045603049
22.5,0.9925046592751657,0.9624975805395272,1.0237551861191705
23,0.992942259606885,0.9618280669402403,1.0253850834478273
23.5,0.9934286107194457,0.9612018139285704,1.0270707190927015
24,0.9939629073422627,0.9606194713538562,1.0288076010487985
24.5,0.9945439468652614,0.9600814101590301,1.0305921376509815
25,0.9951700989533497,0.9595877058576282,1.0324200714331195
25.5,0.9958392734152566,0.9591381210740774,1.0342864242892509
26,0.9965488863095486,0.95873208709962,1.0361854399667525
27,0.9980764072892022,0.9580466222117384,1.0400541821119256
27.5,0.9988863494610862,0.95776421670988,1.0420079553600452
28,0.9997207187925341,0.9575193685803323,1.043962356180651
28.5,1.0005738953046028,0.9573095391823806,1.0459068024735727
29,1.0014395282733666,0.9571317258449169,1.0478295527930268
29.5,1.0023104927622526,0.9569824362014374,1.0497176430500612
30,1.0031788459142827,0.9568576616929476,1.051556826184716
30.5,1.0040357835513765,0.9567528503831356,1.0533315164186798
31,1.004871597747687,0.9566628792750567,1.0550247399733297
31.5,1.0056756361767252,0.9565820263699534,1.056618094426168
32,1.006436264177286,0.9565039427668053,1.0580917191728907
33,1.0077756389756967,0.956327389213513,1.0605929690635885
34,1.0087758406294798,0.9560688696967218,1.0632645357354822
35,1.0093057491958848,0.955652381212661,1.0655404335481737
36,1.0092170838266366,0.9544190701373759,1.06691127621935
37,1.008345372110014,0.9520971696758281,1.0671482653309188
39,1.0035281792805513,0.9415927421651198,1.0658923800310878
40,0.9991993118137679,0.9345318420873782,1.0649117463620978
41,0.9933327210375825,0.9260766894981335,1.0623290427498389
42,0.9857457823219515,0.9161031208681456,1.057895363348081
43.2,0.9741436128736286,0.9019894659228643,1.0497995142102967
44.5,0.9582621335205905,0.8839345262629831,1.0372238416676134
45.8,0.9387795109469257,0.8629613741686873,1.0203666921360781
47.5,0.9078719092506119,0.8312755022441202,0.9916206196451517
48.8,0.8803171551330984,0.8040695635498475,0.9646202155293566
50,0.8522065251840373,0.774338614587209,0.9361428817360528
51.5,0.8140744935561874,0.7298431511549944,0.8964131255254181
53,0.7734713037727154,0.6847622429241952,0.8573629213024548
55,0.7171741490426329,0.6254293463528402,0.8064562890024115
56.5,0.6745403760709118,0.5825075107863988,0.7678190554389978
58,0.6324546051286803,0.5415454507348367,0.7279773587761058
60,0.578280537521247,0.4905447386295333,0.6743331966503472
61.5,0.539690889435675,0.4552165560109427,0.6345954318907353
63,0.5031715139605503,0.42243488920386146,0.5958963602766949
64.5,0.4688748640405402,0.39214916944364697,0.5586471922499948
66,0.43685561765780895,0.3642559961755081,0.5231353781398751
67.5,0.4070958026972959,0.33861967960482153,0.48954017180072024
68.8,0.3830792727176853,0.31810921661122976,0.462046376459929
70,0.3623143573896977,0.30048970502270816,0.43802076676448737
71.5,0.3381583791203717,0.28011106465758534,0.40979830378614235
73.2,0.3130455491909821,0.2590436117981128,0.38017420927743406
