Frequency,Nominal,Min,Max
0.041,3.839569289940146e-7,3.820554381813362e-7,3.8597166372862897e-7
0.042,3.8458314204672047e-7,3.8261027022435244e-7,3.866747244795918e-7
0.0432,3.8535406433357605e-7,3.832933554796431e-7,3.8754020155170695e-7
0.0445,3.8621315324469614e-7,3.840546120032483e-7,3.8850459340011015e-7
0.0458,3.870970747231837e-7,3.8483792741835084e-7,3.894967908796146e-7
0.0475,3.882903591929948e-7,3.8589548032547145e-7,3.908361354993197e-7
0.0488,3.8923139748163764e-7,3.867295469864893e-7,3.918922705264286e-7
0.05,3.9012194354476867e-7,3.875189150711753e-7,3.928916679483538e-7
0.0515,3.9126462225098244e-7,3.885318454730602e-7,3.9417391917489776e-7
0.053,3.924400008951456e-7,3.8957384916981655e-7,3.95492753713414e-7
0.055,3.9405790192415967e-7,3.910082997070036e-7,3.973079430942026e-7
0.0565,3.953092715064323e-7,3.921178864791248e-7,3.987117694160478e-7
0.058,3.9659307551444516e-7,3.932563272274447e-7,4.001518624333988e-7
0.06,3.983551293564363e-7,3.948190170661756e-7,4.021282375993916e-7
0.0615,3.997143023849542e-7,3.960245244685009e-7,4.03652585128074e-7
0.063,4.0110564327058223e-7,3.9725866325993924e-7,4.0521288531964646e-7
0.0645,4.025290725147262e-7,3.9852136653601603e-7,4.068090453520159e-7
0.066,4.0398451104957377e-7,3.9981256749429605e-7,4.0844097331848355e-7
0.0675,4.054718803554006e-7,4.011321995238393e-7,4.1010857837806526e-7
0.0688,4.067867020023005e-7,4.022988269150611e-7,4.1158262558955074e-7
0.07,4.08021575354661e-7,4.0339458640366115e-7,4.1296695974923776e-7
0.0715,4.0959371491463113e-7,4.047897113755247e-7,4.1472926929238196e-7
0.0732,4.11413729676459e-7,4.064049279756557e-7,4.167692897464962e-7
0.075,4.1338499301341893e-7,4.08154518818084e-7,4.189786735231441e-7
0.0765,4.150623430250029e-7,4.0964336017510804e-7,4.2085851130370575e-7
0.078,4.167710989602091e-7,4.111601789739798e-7,4.2277343208068664e-7
0.08,4.190981728273794e-7,4.132260174850784e-7,4.253811000515915e-7
0.082,4.2148079282573743e-7,4.153413392491922e-7,4.280508237149768e-7
0.084,4.239188020380863e-7,4.1750600324280553e-7,4.307824337839153e-7
0.086,4.2641204908577165e-7,4.1971987204100006e-7,4.335757690538654e-7
0.088,4.289603884909209e-7,4.2198281211391853e-7,4.3643067683095437e-7
0.09,4.3156368102202343e-7,4.242946941123039e-7,4.393470133359028e-7
0.092,4.3422179402258976e-7,4.2665539314182577e-7,4.4232464408341836e-7
0.094,4.3693460172268967e-7,4.2906478902595617e-7,4.4536344423697336e-7
0.096,4.397019855332303e-7,4.31522766557193e-7,4.484632989389575e-7
0.098,4.4252383432288447e-7,4.34029215736475e-7,4.51624103616259e-7
0.1,4.4540004467763706e-7,4.3658403200067024e-7,4.5484576426138723e-7
0.102,4.4833052114295627e-7,4.3918711643805264e-7,4.58128197689309e-7
0.104,4.5131517644863933e-7,4.4183837599171843e-7,4.6147133177020296e-7
0.106,4.543539317164199e-7,4.4453772365092124e-7,4.648751056383844e-7
0.108,4.574467166504531e-7,4.4728507863033345e-7,4.683394698776763e-7
0.11,4.60593469710826e-7,4.500803665372679e-7,4.71864386683531e-7
0.112,4.6379413827025717e-7,4.5292351952691444e-7,4.754498300022159e-7
0.115,4.6869613985688424e-7,4.5727786413018823e-7,4.809414544278543e-7
0.118,4.737192471865197e-7,4.6173959168944713e-7,4.865692370529041e-7
0.12,4.771352342814898e-7,4.647736622884505e-7,4.903967645170715e-7
0.122,4.806050117612184e-7,4.6785536156947737e-7,4.942848677956999e-7
0.125,4.859105446148033e-7,4.7256715948455125e-7,5.002307065909297e-7
0.128,4.913371665497539e-7,4.773860085311043e-7,5.063131543553305e-7
0.13,4.950222334936169e-7,4.806580363444225e-7,5.104441431315974e-7
0.132,4.987612027213637e-7,4.839776367029835e-7,5.14636059060402e-7
0.135,5.044708378569993e-7,4.890462621049741e-7,5.210384068008832e-7
0.138,5.103020833846e-7,4.942220216663785e-7,5.27578489947776e-7
0.14,5.142572686289143e-7,4.977320984325752e-7,5.320152928633949e-7
0.142,5.1826670700313e-7,5.01289878468191e-7,5.365136697810781e-7
0.145,5.243828068975381e-7,5.067161006899872e-7,5.433770467950136e-7
0.148,5.306215705629927e-7,5.122499623221045e-7,5.503799326060915e-7
0.15,5.348490966754201e-7,5.159991167316844e-7,5.551263471195366e-7
0.155,5.45658134292299e-7,5.255822832946151e-7,5.672662834518078e-7
0.16,5.568122544346677e-7,5.354670200341817e-7,5.79800329655005e-7
0.165,5.683141128041755e-7,5.45655021234278e-7,5.927323119445369e-7
0.17,5.801666653217074e-7,5.561482451963923e-7,6.060663716924798e-7
0.175,5.923731437562411e-7,5.669489012865924e-7,6.198069226058211e-7
0.18,6.049370276080797e-7,5.780594345912234e-7,6.339586018699015e-7
0.185,6.1786201202539e-7,5.894825081027832e-7,6.485262147663713e-7
0.19,6.311519714816566e-7,6.012209823270665e-7,6.635146721937301e-7
0.195,6.448109188902725e-7,6.132778921716103e-7,6.789289204392667e-7
0.2,6.588429597815513e-7,6.256564209440339e-7,6.947738624754803e-7
0.205,6.73252241117662e-7,6.383598712573191e-7,7.110542699836539e-7
0.21,6.88042894273104e-7,6.513916326077348e-7,7.277746852445059e-7
0.215,7.03218971663396e-7,6.647551453603043e-7,7.449393119837696e-7
0.22,7.187843764638093e-7,6.784538608468492e-7,7.625518942227813e-7
0.225,7.347427848248366e-7,6.924911972532005e-7,7.806155821653219e-7
0.23,7.510975599634999e-7,7.06870490945758e-7,7.991327841576174e-7
0.235,7.67851657491955e-7,7.215949428639363e-7,8.181050037952292e-7
0.24,7.850075213399192e-7,7.366675595850653e-7,8.375326613265029e-7
0.245,8.025669696387099e-7,7.52091088653161e-7,8.574148986264457e-7
0.25,8.205310699660303e-7,7.678679477539545e-7,8.777493671978341e-7
0.255,8.389000034068431e-7,7.840001473172986e-7,8.985319989096514e-7
0.26,8.576729169719713e-7,8.004892061364663e-7,9.197567595192969e-7
0.27,8.964211326413724e-7,8.345409602793081e-7,9.634971048978387e-7
0.275,9.163880616600294e-7,8.521033702722001e-7,9.859883447946127e-7
0.28,9.36741845217316e-7,8.700218455651095e-7,0.0000010088724263750597
0.285,9.57473825943371e-7,8.882939117859009e-7,0.000001032129252502888
0.29,9.785731781669681e-7,9.069159316337269e-7,0.00000105573499141436
0.295,0.0000010000266825825585,9.258829640338994e-7,0.000001079661762541251
0.3,0.0000010218184945099622,9.451886153710221e-7,0.0000011038773314718164
0.305,0.0000010439299085160927,9.648248833718735e-7,0.0000011283448225283728
0.31,0.0000010663391229026353,9.847819944852633e-7,0.0000011530224589142496
0.315,0.000001089021008373417,0.0000010050482359281381,0.0000011778633418396596
0.32,0.0000011119468860670316,0.0000010256097839373533,0.000001202815281391155
0.33,0.0000011583969383161018,0.0000010675519087794749,0.0000012528165746289146
0.34,0.000001205381636622001,0.0000011104490017134418,0.0000013025011944530298
0.35,0.000001252526395712656,0.0000011540971514268674,0.0000013512623807339172
0.36,0.0000012993886696171114,0.0000011982433828915408,0.0000013986098041623002
0.37,0.00000134546129657404,0.0000012425824899825168,0.0000014452047459660643
0.39,0.0000014329454021347778,0.000001330353801241183,0.0000015293468754034962
0.4,0.0000014731311202472387,0.0000013727820614128655,0.0000015654416482524367
0.41,0.0000015101248925337288,0.0000014123331319720536,0.0000015967001293662207
0.42,0.000001543353220718099,0.0000014496140153496389,0.0000016226339891095558
0.432,0.000001577558601405396,0.0000014906482150070652,0.0000016462792656688603
0.445,0.0000016069224694987621,0.000001529665513296099,0.000001662480313658317
0.458,0.000001627818466222872,0.0000015621949240311404,0.0000016691199650868424
0.475,0.0000016422880676964014,0.0000015939593546484385,0.0000016745206000254902
0.488,0.0000016439958306206477,0.0000015980376871259513,0.0000016765799030328456
0.5,0.0000016390551357796535,0.0000015823901313594835,0.0000016733602907252852
0.515,0.0000016252506831666693,0.000001557346132914429,0.000001675095141834791
0.53,0.0000016044930447104423,0.0000015278261070882498,0.0000016677717800696908
0.55,0.0000015688279660731853,0.0000014841192812972741,0.000001646253979862833
0.565,0.0000015380282112561155,0.0000014496739090082016,0.0000016232212163907724
0.58,0.0000015051705451133332,0.0000014148508018981752,0.0000015958874841247802
0.6,0.0000014598895036395178,0.000001368868478624918,0.0000015549768789464618
0.615,0.0000014258117661814896,0.000001334643950666018,0.0000015223455703048568
0.63,0.0000013922466403731258,0.0000013018333050636136,0.0000014890021875269782
0.645,0.0000013595742725976524,0.0000012705785433635535,0.0000014556038590080786
0.66,0.0000013280508220405946,0.0000012409449115017463,0.000001422643290035692
0.675,0.0000012978368573969248,0.0000012129432663608215,0.0000013910430279411502
0.688,0.0000012727807054102177,0.0000011899754530003685,0.000001364642510619826
0.7,0.0000012506069666166857,0.000001169816898472548,0.0000013409531225966616
0.715,0.0000012241827319670944,0.0000011459744492841623,0.000001312365556332721
0.732,0.00000119594570280142,0.0000011206864932159688,0.000001281435207245649
0.75,0.0000011679631853054103,0.0000010957951457711918,0.0000012504416145073616
0.765,0.0000011460819447836504,0.0000010764337668062772,0.0000012259962771301925
0.78,0.0000011254405180235567,0.0000010582429314893069,0.0000012027856915046068
0.8,0.0000010997324381502814,0.0000010356762465904452,0.000001173695528587932
0.82,0.0000010759517825065542,0.0000010148802353264723,0.000001146626529179617
0.84,0.0000010539435471522329,9.95694442594202e-7,0.0000011214542728213955
0.86,0.0000010335602500675947,9.779719003566806e-7,0.000001098048614130519
0.88,0.0000010146639480912543,9.615789526659453e-7,0.0000010762798494130828
0.9,9.97127096100187e-7,9.46394620221425e-7,0.0000010560225267028473
0.92,9.808326823712886e-7,9.323097258228436e-7,0.00000103715766360876
0.94,9.656739272266939e-7,9.192259185025156e-7,0.000001019573905459897
0.96,9.515537328957367e-7,9.070546800298106e-7,0.0000010031679906608463
0.98,9.38384006035676e-7,8.957163627341914e-7,9.87844773756535e-7
1,9.260849300478792e-7,8.85139285485868e-7,9.735169757224928e-7
1.02,9.14584234984918e-7,8.752589007916274e-7,9.6010477509407e-7
1.04,9.038164935499892e-7,8.660170374133953e-7,9.475353151917472e-7
1.06,8.937224591177613e-7,8.573612178046315e-7,9.357421765223122e-7
1.08,8.842484536152398e-7,8.492440467475173e-7,9.24664845666455e-7
1.1,8.7534580798793e-7,8.416226660553271e-7,9.142481999763033e-7
1.12,8.669703548314835e-7,8.344582695548004e-7,9.044420193833286e-7
1.15,8.55308895237383e-7,8.244924487105289e-7,8.907783551617295e-7
1.18,8.446237164329094e-7,8.153709954138635e-7,8.782482988250535e-7
1.2,8.379903328817423e-7,8.097134264708618e-7,8.70464649928243e-7
1.22,8.317163696822815e-7,8.043661122169627e-7,8.630992201503959e-7
1.25,8.22924661408184e-7,7.968792372587706e-7,8.527721892736554e-7
1.28,8.148088630388291e-7,7.899748235411032e-7,8.432329133653979e-7
1.3,8.097403577268096e-7,7.856663663641437e-7,8.372723186310349e-7
1.32,8.049244207503227e-7,7.815752115031825e-7,8.316064838296407e-7
1.35,7.981385307856847e-7,7.758150689583499e-7,8.236191996624317e-7
1.38,7.918342470333736e-7,7.704686668373557e-7,8.161946161319675e-7
1.4,7.878768470438943e-7,7.671151005947681e-7,8.115318417652012e-7
1.42,7.841018065787018e-7,7.639179677674156e-7,8.070823529673303e-7
1.45,7.78757347081635e-7,7.593949648554113e-7,8.007803321048773e-7
1.48,7.737649052864015e-7,7.55173508291737e-7,7.948904103282776e-7
1.5,7.706171542800699e-7,7.525137461699738e-7,7.911752546014703e-7
1.55,7.633213393259942e-7,7.463548553141524e-7,7.825595207917678e-7
1.6,7.567573999586618e-7,7.40821200636148e-7,7.748020259229437e-7
1.65,7.508309585631504e-7,7.358314304014016e-7,7.677926909236935e-7
1.7,7.454623843253803e-7,7.313169862441303e-7,7.614385618080865e-7
1.75,7.405841223127187e-7,7.272197756557733e-7,7.556607205606053e-7
1.8,7.361385669573655e-7,7.234903205394545e-7,7.503918226301949e-7
1.85,7.320763577555485e-7,7.20086274589292e-7,7.455741213794899e-7
1.9,7.283550046838647e-7,7.169712284450689e-7,7.411578733948865e-7
1.95,7.249377728231531e-7,7.141137409158704e-7,7.371000435713504e-7
2,7.217927720743423e-7,7.114865489575835e-7,7.333632476153464e-7
2.05,7.188922101554751e-7,7.090659198744031e-7,7.299148837145866e-7
2.1,7.162117763664412e-7,7.068311173547054e-7,7.26726415808427e-7
2.15,7.137301306793108e-7,7.047639591377955e-7,7.23772779035459e-7
2.2,7.114284781252144e-7,7.028484488405183e-7,7.210318841773855e-7
2.25,7.09290212618348e-7,7.010704681162604e-7,7.184842027324476e-7
2.3,7.073006175890978e-7,6.994175181413887e-7,7.161124179860189e-7
2.35,7.054466133172533e-7,6.978785016235819e-7,7.139011303591955e-7
2.4,7.037165428310925e-7,6.964435382501923e-7,7.118366076014229e-7
2.45,7.020999897947275e-7,6.951038078529422e-7,7.099065721954273e-7
2.5,7.005876230395645e-7,6.938514166411392e-7,7.081000197714398e-7
2.55,6.991710633780778e-7,6.926792827120733e-7,7.064070634659568e-7
2.6,6.978427691242564e-7,6.915810377324625e-7,7.048188000715968e-7
2.7,6.954244186349821e-7,6.895838124227797e-7,7.019249801325197e-7
2.75,6.94322642719756e-7,6.886749567204079e-7,7.006055715019322e-7
2.8,6.932855543330999e-7,6.878201206330825e-7,6.993629893641697e-7
2.85,6.923085568357482e-7,6.870154386786493e-7,6.981917945092155e-7
2.9,6.913874630730691e-7,6.862573923835257e-7,6.970870301476557e-7
2.95,6.905184522540681e-7,6.855427734810923e-7,6.960441713142266e-7
3,6.896980320462565e-7,6.848686515893502e-7,6.950590803698182e-7
3.05,6.889230051769065e-7,6.842323457553761e-7,6.941279677748592e-7
3.1,6.881904399380112e-7,6.836313993466538e-7,6.932473574312081e-7
3.15,6.874976440814826e-7,6.830635578466821e-7,6.924140559934701e-7
3.2,6.868421416658991e-7,6.825267491770061e-7,6.916251256376955e-7
3.3,6.856340737132005e-7,6.815387512803253e-7,6.901697618483833e-7
3.4,6.845500268755788e-7,6.806538599961122e-7,6.888620172979024e-7
3.5,6.835761472474117e-7,6.798605107887623e-7,6.876854298249492e-7
3.6,6.827005362993288e-7,6.791487817310811e-7,6.866258524224927e-7
3.7,6.819129281512183e-7,6.78510120715436e-7,6.85671072484291e-7
3.9,6.805672951404476e-7,6.774233565614841e-7,6.840349260001691e-7
4,6.799947724449822e-7,6.76963201978719e-7,6.833362912801713e-7
4.1,6.794809353264155e-7,6.765517419450935e-7,6.82707537347007e-7
4.2,6.790205736508059e-7,6.76184653804572e-7,6.821424517780658e-7
4.32,6.785322925278727e-7,6.757973840813464e-7,6.815407157401161e-7
4.45,6.78074738584467e-7,6.754371162770727e-7,6.809738269427236e-7
4.58,6.776840508653079e-7,6.751323609359192e-7,6.804864865029589e-7
4.75,6.772632374521124e-7,6.748086557016937e-7,6.799563173370651e-7
4.88,6.770032567121618e-7,6.746124864259196e-7,6.796243622874225e-7
5,6.768062492563855e-7,6.744671408025694e-7,6.793689858021335e-7
5.15,6.766129405478862e-7,6.743295169936053e-7,6.791126182111054e-7
5.3,6.764733283513404e-7,6.742366071507316e-7,6.789199434942068e-7
5.5,6.763625406019764e-7,6.741755472295027e-7,6.787523533448534e-7
5.65,6.763307331289125e-7,6.741725492266682e-7,6.786873753940324e-7
5.8,6.763390272252021e-7,6.742030574840058e-7,6.786698242479039e-7
6,6.76407350892253e-7,6.742916430855533e-7,6.787140744883902e-7
6.15,6.764982185488347e-7,6.743912768452839e-7,6.787940217436101e-7
6.3,6.766205742016596e-7,6.745173251201441e-7,6.789110837238699e-7
6.45,6.767724749369239e-7,6.746681893039967e-7,6.790629338725049e-7
6.6,6.769522033217068e-7,6.74842456617783e-7,6.792475155490683e-7
6.75,6.771582374636339e-7,6.7503887535857e-7,6.794630062550708e-7
6.88,6.773570300751175e-7,6.752261605379483e-7,6.796735109677868e-7
7,6.775564813961046e-7,6.754125019951315e-7,6.79886528978521e-7
7.15,6.778264508360626e-7,6.756628818773481e-7,6.801770035031697e-7
7.32,6.781589952373292e-7,6.759691307181808e-7,6.805373211869439e-7
7.5,6.785405143760264e-7,6.763183093586958e-7,6.809532289146303e-7
7.65,6.788806033577513e-7,6.766280832557059e-7,6.813257014667414e-7
7.8,6.792400941538129e-7,6.769543316982662e-7,6.817208180944867e-7
8,6.797485330192085e-7,6.774140825452713e-7,6.82281593339558e-7
8.2,6.802890679249991e-7,6.779011504574592e-7,6.828797597939616e-7
8.4,6.808605679593368e-7,6.784146046837039e-7,6.83513966357698e-7
8.6,6.814620488277221e-7,6.789536347344541e-7,6.841830379817195e-7
8.8,6.820926533422853e-7,6.795175343357392e-7,6.848859522863399e-7
9,6.827516349339491e-7,6.801056878743423e-7,6.856218197978035e-7
9.2,6.834383436633332e-7,6.807175589013296e-7,6.863898671763377e-7
9.4,6.841522143063613e-7,6.813526803439526e-7,6.871894229285603e-7
9.6,6.848927561698302e-7,6.820106461415359e-7,6.880199051918274e-7
9.8,6.856595443553391e-7,6.826911040731468e-7,6.888808112535363e-7
10,6.864522122405187e-7,6.833937495866184e-7,6.897717085288365e-7
10.2,6.872704449871472e-7,6.841183204720374e-7,6.906922267687597e-7
10.4,6.881139739185918e-7,6.848645922499629e-7,6.916420513101009e-7
10.6,6.889825716356872e-7,6.856323741666063e-7,6.926209172102569e-7
10.8,6.898760477618914e-7,6.864215057061604e-7,6.936286041362451e-7
11,6.907942452263637e-7,6.872318535451198e-7,6.946649318984259e-7
11.2,6.917370370082319e-7,6.880633088855004e-7,6.957297565369518e-7
11.5,6.931971274570149e-7,6.893498845481182e-7,6.973801901705641e-7
11.8,6.947121011022857e-7,6.906832990811795e-7,6.99095922739954e-7
12,6.957525077333747e-7,6.915960058156219e-7,7.00275201784352e-7
12.2,6.968172352931074e-7,6.92529553189406e-7,7.014837493318731e-7
12.5,6.984599408584872e-7,6.939689512883271e-7,7.033498288786621e-7
12.8,7.00157458516604e-7,6.954552901335054e-7,7.052795871321796e-7
13,7.013196590146132e-7,6.964723115134998e-7,7.066015691814792e-7
13.2,7.025063454236079e-7,6.975102865585418e-7,7.079520245901519e-7
13.5,7.043324458272728e-7,6.991066579739298e-7,7.100313062087702e-7
13.8,7.062140898403314e-7,7.007505178679711e-7,7.121752430746902e-7
14,7.074995407180397e-7,7.01872933405047e-7,7.136406655284864e-7
14.2,7.088099367082654e-7,7.030166553033706e-7,7.151351568204479e-7
14.5,7.108225651579005e-7,7.04772392056904e-7,7.174317321544704e-7
14.8,7.128920233918521e-7,7.065766173295043e-7,7.197946062189946e-7
15,7.143034648931717e-7,7.07806553163678e-7,7.214069795195213e-7
15.5,7.179444638906414e-7,7.109771641516244e-7,7.255692122321538e-7
16,7.217480269042346e-7,7.142861710662882e-7,7.299215188566493e-7
16.5,7.257168283727189e-7,7.177356943637542e-7,7.344672319205368e-7
17,7.298537259279504e-7,7.21328008680152e-7,7.392098930331782e-7
17.5,7.341617371994023e-7,7.250655255288952e-7,7.441532214818338e-7
18,7.386440188923843e-7,7.289507781166173e-7,7.493010850164917e-7
18.5,7.433038473280524e-7,7.329864076440505e-7,7.546574717820911e-7
19,7.481445997859025e-7,7.371751505858886e-7,7.602264625342028e-7
19.5,7.531697361000605e-7,7.415198265372591e-7,7.660122024010538e-7
20,7.58382780040576e-7,7.460233262829276e-7,7.720188715447369e-7
20.5,7.637873000681286e-7,7.506885997953804e-7,7.782506541372353e-7
21,7.693868890909419e-7,7.555186439041779e-7,7.847117051098406e-7
21.5,7.751851428804738e-7,7.605164894048683e-7,7.914061141629604e-7
22,7.811856368208587e-7,7.65685187393821e-7,7.983378665413966e-7
22.5,7.873919006785171e-7,7.710277946274763e-7,8.05510800091322e-7
23,7.938073910848083e-7,7.765473577121063e-7,8.129285581221858e-7
23.5,8.004354614275922e-7,7.822468959344218e-7,8.205945376022744e-7
24,8.072793288485633e-7,7.881293825450663e-7,8.28511832222964e-7
24.5,8.143420380433526e-7,7.941977243069949e-7,8.366831698764047e-7
25,8.216264215619819e-7,8.004547391195876e-7,8.451108441068598e-7
25.5,8.291350563094221e-7,8.069031315276942e-7,8.537966391200876e-7
26,8.3687021595109e-7,8.135454659231812e-7,8.627417479708449e-7
27,8.530273718769804e-7,8.274213389890507e-7,8.814111824561812e-7
27.5,8.614519080094829e-7,8.346590283239031e-7,8.911341005487539e-7
28,8.701079205632826e-7,8.420986516308216e-7,9.011133018573904e-7
28.5,8.789952908235135e-7,8.497413958167726e-7,9.113459225395434e-7
29,8.881132107951847e-7,8.575869241844056e-7,9.218272428294503e-7
29.5,8.974601004177279e-7,8.656376858564472e-7,9.325512408972024e-7
30,9.070335193791074e-7,8.738938132029568e-7,9.435105532380229e-7
30.5,9.168300736901396e-7,8.823549234168293e-7,9.546961627494173e-7
31,9.268453173161692e-7,8.910200590083081e-7,9.66099204347478e-7
31.5,9.370736493259877e-7,8.998876244806296e-7,9.777054777890777e-7
32,9.475082072092851e-7,9.089553192495853e-7,9.894995214059925e-7
