Frequency,Nominal,Min,Max
0.041,4.580498264743221,4.572486897695681,4.588370118485025
0.042,4.577266961091442,4.5690570689047405,4.585333568045131
0.0432,4.573387875889646,4.564939464673312,4.581688436365642
0.0445,4.569183610847627,4.560476437218007,4.577737938073436
0.0458,4.56497728852991,4.5560109583399635,4.573785723307936
0.0475,4.559473509563218,4.550167665871053,4.568614771919522
0.0488,4.555262210748207,4.545696250957284,4.564658410435676
0.05,4.551372856138728,4.541566401067146,4.5610047182195395
0.0515,4.546508384760521,4.536400770290717,4.556435292029691
0.053,4.541640737626886,4.531231344229326,4.551863225729612
0.055,4.535145435130039,4.5243326702720195,4.545762895061376
0.0565,4.530270002664942,4.519153932417502,4.541184362794984
0.058,4.52539107083914,4.513971005906362,4.536602926711615
0.06,4.518880214008746,4.507053713686624,4.530489688854751
0.0615,4.513992731258726,4.501860544573322,4.525901162719375
0.063,4.509101416585677,4.496662782321397,4.521309461662948
0.0645,4.504206168491304,4.491460303389273,4.5167145029708715
0.066,4.49930688467372,4.486252983201986,4.512116203296831
0.0675,4.494403462021299,4.481040696137429,4.507514478663056
0.0688,4.490150400888848,4.476519265138117,4.503523481519417
0.07,4.486221610872921,4.472342168955949,4.499837096490508
0.0715,4.481306640980698,4.467116014601847,4.495225823249258
0.0732,4.47573086704485,4.461186460280923,4.489995189697167
0.075,4.469820599572546,4.454900285576488,4.484451497367905
0.0765,4.464890132097885,4.449655498494745,4.4798274237208915
0.078,4.459954780540205,4.444404834453657,4.475199319298852
0.08,4.453366524149929,4.437394574261556,4.469022089060887
0.082,4.446769126176538,4.430373304165814,4.462837321066251
0.084,4.440162320484211,4.423340697734215,4.456644799807664
0.086,4.433545837916008,4.416296424502375,4.450444307529667
0.088,4.426919406226039,4.409240149876924,4.444235624183399
0.09,4.42028275000991,4.402171535037014,4.4380185273796
0.092,4.413635590633693,4.395090236834331,4.431792792340085
0.094,4.4069776461615735,4.387995907691783,4.4255581918478555
0.096,4.400308631282331,4.38088819550099,4.4193144961960344
0.098,4.3936282572347585,4.373766743518693,4.413061473135739
0.1,4.386936231732146,4.366631190262204,4.406798887823026
0.102,4.380232258885913,4.359481169403974,4.4005265027649845
0.104,4.373516039128467,4.3523163096653725,4.3942440777650855
0.106,4.366787269135367,4.3451362347097655,4.387951369867848
0.108,4.360045641746857,4.337940563034961,4.381648133302876
0.11,4.353290845888824,4.330728907865093,4.375334119428349
0.112,4.346522566493245,4.323500877042029,4.3690090766739935
0.115,4.336344166510207,4.312627255071192,4.3595002757203485
0.118,4.326133614809128,4.301714526046868,4.349965214292225
0.12,4.31930816789599,4.2944169595624615,4.343593479726015
0.122,4.312467599382531,4.287100972074582,4.337209412475677
0.125,4.302177647031904,4.276091516266691,4.327609595489886
0.128,4.291851734108174,4.26503818522982,4.31798049425046
0.13,4.2849472259291215,4.257644184180138,4.3115443589629425
0.132,4.278025846098691,4.25022956578229,4.305094505200236
0.135,4.2676113436382455,4.239067975656784,4.295393372182032
0.138,4.257156808284554,4.22785738698289,4.285659738283487
0.14,4.250164248256864,4.220355645771938,4.279152097409771
0.142,4.243152944320277,4.212830926226108,4.272629262812148
0.145,4.232599988967475,4.201499681828146,4.262815851255917
0.148,4.22200264198397,4.190113930032283,4.252966512453668
0.15,4.214912408147724,4.182492293082875,4.246379798802895
0.155,4.197095133601252,4.163325400790928,4.229838947760751
0.16,4.17914157096509,4.143990628670383,4.213188142680126
0.165,4.161044896358469,4.124479293918978,4.1964220592559345
0.17,4.142798049348128,4.104782398928618,4.179535198759227
0.175,4.124393726316967,4.084890623869137,4.162521882640313
0.18,4.105824374336034,4.064794320338961,4.145376247352489
0.185,4.087082185654804,4.044483506309933,4.128092239453018
0.19,4.0681590929413005,4.023947862626699,4.110663611045922
0.195,4.049046765422182,4.003176731357641,4.093083915640314
0.2,4.029736606093466,3.982159116334781,4.075346504507926
0.205,4.010219750195206,3.960883686264231,4.057444523634626
0.21,3.9904870651682973,3.9393387808366693,4.039370911372998
0.215,3.9705291523386874,3.9175124203189355,4.021118396916462
0.22,3.9503363506034983,3.895392319162612,4.002679499730141
0.225,3.929898742425184,3.872965904223064,3.9840465300896506
0.23,3.9092061624732164,3.850220338241888,3.9652115908962395
0.235,3.888248209288199,3.82714254930594,3.9461665809552877
0.24,3.867014260379907,3.8037192670554214,3.9269031999249
0.245,3.845493491208331,3.779937066469869,3.907412955162267
0.25,3.8236748985343723,3.755782420111456,3.887687170717303
0.255,3.8015473286635943,3.731241759746431,3.8677169987457147
0.26,3.779099511140928,3.7063015482935215,3.8474934336366586
0.27,3.733197712575481,3.655168991191589,3.8062494190662726
0.275,3.709720998324287,3.6289505382835987,3.7852103412240923
0.28,3.685878685265609,3.602280550878622,3.763880666138061
0.285,3.6616596576926854,3.57514715361158,3.7422509297822346
0.29,3.6370530339405325,3.5475392014352263,3.720311671434862
0.295,3.6120482553645608,3.519446447168655,3.6980534768361073
0.3,3.5866351854873075,3.4908597242575925,3.675467027093876
0.305,3.560804219675452,3.4617711442199193,3.6525431537378013
0.31,3.5345464055612945,3.43217430774287,3.6292729002975523
0.315,3.5078535742320547,3.402064527800014,3.605647590743272
0.32,3.4807184819717794,3.3714390624688355,3.581658905070398
0.33,3.425098085715304,3.308641272757555,3.5325604105524793
0.34,3.3676517585738788,3.2438070319725734,3.4819213149932695
0.35,3.3083713883050967,3.177008702944838,3.4296972888560306
0.36,3.24727991936422,3.1083714342502358,3.375859451087212
0.37,3.1844369161687593,3.0380777948202238,3.3203983881766623
0.39,3.0539457838866495,2.893545518921605,3.204691428831489
0.4,2.986636900061999,2.8199554355447685,3.1445612624233448
0.41,2.918255734971247,2.745988929934833,3.08304609760856
0.42,2.8490832024044916,2.6720610576079338,3.020290552137168
0.432,2.765478171044945,2.5839941223891856,2.9436041548939356
0.445,2.6748209935147864,2.4901600031130644,2.8592484596358125
0.458,2.5848333166672046,2.398756403861817,2.774111302082127
0.475,2.4694191830883163,2.2840173506626544,2.66263511630691
0.488,2.383750703049661,2.200573404496882,2.57810159162547
0.5,2.307201166991388,2.1271630327925015,2.501220649544676
0.515,2.215446326930208,2.040470657459532,2.407374501195126
0.53,2.128463781574816,1.9594416597678541,2.316729259360769
0.55,2.020273768908474,1.8599657322748544,2.201821521443791
0.565,1.9449938245887823,1.7914366133901831,2.120577923127912
0.58,1.8745982144625635,1.7277438842333215,2.04376702926826
0.6,1.7879401583962724,1.649708963340336,1.9482768184274644
0.615,1.727982923669198,1.5958719211936674,1.8817261442060966
0.63,1.6720018519917716,1.5456616463599089,1.8193221752314583
0.645,1.6196864647209979,1.4987490595620172,1.760838676733496
0.66,1.5707351631023199,1.454831381417857,1.706025623149535
0.675,1.5248622346016858,1.4136331470472498,1.6546243127973226
0.688,1.4873896187148763,1.3799348387255752,1.6126376172800687
0.7,1.4545354054384871,1.350348622940353,1.5758438912192863
0.715,1.415629240505351,1.315254108859286,1.5323123821949645
0.732,1.3741940224890918,1.277799171704259,1.4860189859470696
0.75,1.3331096216977265,1.2405715361235745,1.4402066463600067
0.765,1.3008594042548571,1.2112809107999283,1.4043189376788663
0.78,1.2702566494457428,1.183428138380449,1.3703319950208939
0.8,1.2317876681059339,1.148331783805404,1.3277106446824296
0.82,1.195733448184336,1.115350475821426,1.2878748385476932
0.84,1.161851397936752,1.0842767615744684,1.2505413249566388
0.86,1.1299301747469686,1.0549300357497688,1.2154621556188043
0.88,1.0997851696607135,1.0271524769919187,1.1824201319539291
0.9,1.071254637322791,1.000805642680193,1.1512247016885984
0.92,1.044196402730205,0.9757676188242026,1.1217083393763025
0.94,1.0184850702321477,0.9519306339571416,1.0937233969957711
0.96,0.9940096627941013,0.9291990589072737,1.0671393872593626
0.98,0.9706716261099412,0.9074877266609845,1.0418406527093962
1,0.9483831401496401,0.8867205175267493,1.017724371933527
1.02,0.9270656888248994,0.8668291642743274,0.994698856583782
1.04,0.9066488459817743,0.8477522398977356,0.9726820971603994
1.06,0.8870692426133118,0.8294342972791855,0.9516005204809079
1.08,0.8682696859586705,0.811825135494924,0.9313879267208683
1.1,0.8501984060556814,0.7948791719845318,0.9119845785431632
1.12,0.8328084094266726,0.7785549034690471,0.8933364189782422
1.15,0.8079082890905469,0.7551521863109952,0.8666740867013226
1.18,0.7843166757349098,0.7329491017077912,0.841454205929665
1.2,0.7692594645206641,0.7187631658192564,0.8253781257216904
1.22,0.7547031880262494,0.7050383527756721,0.8098515533899289
1.25,0.7337479859076387,0.6852618178343404,0.7875241993501981
1.28,0.7137732690602887,0.6663909380267061,0.7662678941733942
1.3,0.7009638929898829,0.6542795201550882,0.7526498403615416
1.32,0.6885362374066178,0.6425217366495164,0.7394472321580849
1.35,0.6705694635126367,0.6255108859818741,0.7203765250264185
1.38,0.6533608338393913,0.6092041512780639,0.7021283634022784
1.4,0.6422833511131852,0.5987002251986367,0.6903907613344102
1.42,0.6315049241985983,0.5884746431172587,0.6789767325815462
1.45,0.6158688217761763,0.5736314329327022,0.6624301560946789
1.48,0.6008335826963849,0.5593484908020803,0.6465321935582804
1.5,0.591124893199076,0.5501203200002533,0.6362729921977291
1.55,0.5678795638696252,0.5280087123346046,0.6117303189292582
1.6,0.5459845697204159,0.5071598519627973,0.5886398683316536
1.65,0.5253112736517939,0.4874547695246335,0.5668613172956949
1.7,0.5057474066080039,0.46878939176977064,0.5462725547564053
1.75,0.4871944568515535,0.45107221200448067,0.526766709100362
1.8,0.4695655584577839,0.4342223966991825,0.5082497573998335
1.85,0.45278376850514734,0.41816823362960975,0.4906385849076309
1.9,0.4367806499882286,0.4028458500944323,0.473859396626001
1.95,0.4214950974676954,0.3881981466543657,0.45784640685198275
2,0.4068723571426954,0.37417390431384223,0.4425407501891876
2.05,0.39286320392099794,0.3607270323778685,0.4278895704992902
2.1,0.37942324623065926,0.3478159312392117,0.4138452539522105
2.15,0.36651233550528073,0.3354029496993677,0.4003647796319457
2.2,0.3540940620072754,0.32345392053769895,0.38740916670614
2.25,0.3421353223046092,0.31193776123044414,0.3749430014279049
2.3,0.33060594655692216,0.30082612921269725,0.36293403053604506
2.35,0.3194783759942229,0.29009312303886164,0.3513528101929418
2.4,0.30872738273079475,0.2797150223540177,0.3401724016223605
2.45,0.2983298254567097,0.26967006083227374,0.3293681062115241
2.5,0.28826443567024906,0.25993822723795024,0.3189172341191836
2.55,0.2785116300178321,0.2505010905740503,0.30879890145652
2.6,0.26905334504028,0.2413416459401908,0.29899385193541944
2.7,0.2509548237220122,0.22379414148062257,0.28025378941311974
2.75,0.242284827592519,0.21537805121042583,0.2712870742959357
2.8,0.23384961557636857,0.2071833890675227,0.2625700048388314
2.85,0.2256368369116616,0.19919851725989424,0.2540894316494849
2.9,0.2176349957553821,0.19141260213271938,0.2458331178088694
2.95,0.20983337805584099,0.18381554559432717,0.2377896604962136
3,0.20222198586014306,0.17639792348240346,0.2299484206309153
3.05,0.1947914781816687,0.16915093005873172,0.2222994595802827
3.1,0.18753311766946898,0.1620663279283626,0.21483348211032965
3.15,0.18043872242091596,0.15513640277076624,0.20754178486579522
3.2,0.17350062236379948,0.148353922348878,0.2004162097583523
3.3,0.16006495301885026,0.13520455750312133,0.18663327035663563
3.4,0.14717357048149746,0.1225686865358424,0.17342879325706984
3.5,0.13477993912085734,0.1104024202676904,0.1607532986570968
3.6,0.1228426910994626,0.09866674063971434,0.14856280629974725
3.7,0.11132492692104566,0.08732684215145502,0.13681808992477335
3.9,0.0894191535582583,0.06571298901300851,0.11452918502056236
4,0.0789748287098536,0.05538590963069627,0.1039251387998693
4.1,0.06883657276745199,0.04534762341242134,0.09364631905210839
4.2,0.05898259550316734,0.03557757377113786,0.08366956711686879
4.32,0.047505367516262595,0.024181451453767572,0.07206675210547528
4.45,0.035466016115072996,0.012207724547707202,0.05991600993145191
4.58,0.02380284325885662,0.00058896537136921,0.04816496732094794
4.75,0.009067407175417291,-0.014117498436953826,0.033346903121267146
4.88,-0.001840638836711525,-0.025023685799350645,0.022398179912474545
5,-0.011655694369794342,-0.03485132630546052,0.012561436461197506
5.15,-0.023608256257546603,-0.046837424639658884,0.0006015127492381839
5.3,-0.035237157522967716,-0.058518076569484975,-0.011014547523632318
5.5,-0.050284472563719027,-0.0736601466619769,-0.026016173425905273
5.65,-0.06125680755415957,-0.08472115160849306,-0.036934713524172616
5.8,-0.07198376630565792,-0.09555056619664383,-0.04759258370486539
6,-0.08593634786672366,-0.10965941001421611,-0.06143124225963548
6.15,-0.09615950651522652,-0.12001330569796256,-0.07155393656752304
6.3,-0.10619219141136457,-0.13018741111358775,-0.08147430458513802
6.45,-0.1160476265689135,-0.1401942040488224,-0.09120639852964618
6.6,-0.12573783696235108,-0.15004503151144383,-0.10076299608341151
6.75,-0.13527378168575196,-0.159750235377569,-0.11015574187669075
6.88,-0.14342124210692592,-0.16805094108691881,-0.11817182744485955
7,-0.15085100825867792,-0.17562725810578544,-0.12547467587247182
7.15,-0.1600222453781429,-0.18498817693913835,-0.1344800665644622
7.32,-0.17026985593891758,-0.19545896023819936,-0.14453062812181466
7.5,-0.1809619048656531,-0.20639617779643982,-0.1550042101161881
7.65,-0.18975560948798648,-0.2154007066478396,-0.16360864036491957
7.8,-0.19845003025826435,-0.22431151658783538,-0.17210762570319965
8,-0.20989775722659762,-0.23605588751732526,-0.1832857819966318
8.2,-0.22119101370982058,-0.24765446492855625,-0.19429987446790264
8.4,-0.23234079066689473,-0.25911763773406027,-0.2051615686547209
8.6,-0.2433570660101096,-0.27045484095089245,-0.21588145198076503
8.8,-0.25424892019159007,-0.2816746647740775,-0.2264691565632261
9,-0.26502463640764135,-0.2927849491363781,-0.23693346567602752
9.2,-0.27569178775848224,-0.3037928659600393,-0.24728240635237986
9.4,-0.28625731330352916,-0.31470499093117343,-0.2575233301881111
9.6,-0.29672758462944915,-0.32552736632270957,-0.26766298406411587
9.8,-0.3071084642844822,-0.3362655561429875,-0.2777075722260518
10,-0.3174053572162363,-0.34692469468297565,-0.28766281092962775
10.2,-0.32762325617198096,-0.3575095293669751,-0.297533976670506
10.4,-0.33776678187310105,-0.3680244586726079,-0.30732594886126907
10.6,-0.3478402186529935,-0.37847356577042524,-0.31704324768787095
10.8,-0.3578475461456889,-0.388860648437229,-0.3266900677696269
11,-0.367792467527148,-0.39918924571668063,-0.33627030815611264
11.2,-0.37767843473956314,-0.4094626617331962,-0.3457875991182568
11.5,-0.39240383993188055,-0.424776027744453,-0.35995284950856643
11.8,-0.40701382038087663,-0.43998177218529266,-0.37399453301307267
12,-0.4166942088747977,-0.4500635077345672,-0.3832917427256264
12.2,-0.4263298486694905,-0.46010373326605536,-0.39254088124379777
12.5,-0.4407044998076599,-0.4750911800226498,-0.4063297622171967
12.8,-0.45499107980349496,-0.48999747871251226,-0.4200236023768361
13,-0.4644699035497441,-0.49989321439323725,-0.42910351497960547
13.2,-0.47391447771525386,-0.5097576694384862,-0.43814624902588895
13.5,-0.488020986418413,-0.5244995047402378,-0.4516446191144196
13.8,-0.5020600514414116,-0.5391804450953324,-0.46506921942482765
14,-0.5113845635384437,-0.548936494207418,-0.47398063074792496
14.2,-0.5206829037831672,-0.5586692641148054,-0.48286313457647817
14.5,-0.534584392387307,-0.5732278306342331,-0.49613577998769304
14.8,-0.5484346228106151,-0.5877416933117554,-0.5093510958177608
15,-0.5576417284302106,-0.5973948917875905,-0.5181315603968986
15.5,-0.5805757739051635,-0.6214572096753628,-0.5399872049976002
16,-0.6034040430573009,-0.6454328159130792,-0.5617200735676465
16.5,-0.6261426614747385,-0.6693385247846633,-0.5833459699962081
17,-0.6488066130236726,-0.6931901667148204,-0.6048794040497029
17.5,-0.6714099447919758,-0.7170027819524406,-0.6263338086199757
18,-0.6939659381319576,-0.7407907820717273,-0.6477217210653102
18.5,-0.7164872521360447,-0.7645680852341623,-0.6690549353909587
19,-0.7389860445359278,-0.7883482298803032,-0.6903446305921035
19.5,-0.7614740739799046,-0.8121444705353692,-0.7116014793856154
20,-0.7839627868376543,-0.8359698586439249,-0.732835740705739
20.5,-0.8064633910500625,-0.8598373107433662,-0.7540573386729379
21,-0.8289869190422873,-0.8837596658040311,-0.7752759302203809
21.5,-0.8515442813200076,-0.9077497331762583,-0.7965009631458765
22,-0.8741463120484001,-0.9318203322696726,-0.8177417260238602
22.5,-0.8968038076532586,-0.9559843248306727,-0.839007391143504
23,-0.919527559270392,-0.9802546404680571,-0.8603070514209908
23.5,-0.9423283796927283,-1.0046442958942232,-0.8816497520555185
24,-0.9652171253165441,-1.0291664081931577,-0.9030445175512885
24.5,-0.9882047134627545,-1.0538342022908864,-0.9245003746050364
25,-1.0113021353416038,-1.0786610126850398,-0.9460263712555131
25.5,-1.0345204648356046,-1.1036602793845842,-0.9676315926036938
26,-1.057870863193492,-1.1288455379164788,-0.9893251733373316
27,-1.1050129479613924,-1.1798285467877165,-1.0330142537132074
27.5,-1.128827378646575,-1.2056536676998346,-1.055028341619711
28,-1.1528193469534425,-1.231719455435851,-1.0771679700503014
28.5,-1.1770003761692367,-1.2580395456865539,-1.0994426064010747
29,-1.2013820161345605,-1.2846274676508522,-1.121861781450647
29.5,-1.225975816643258,-1.311496582639294,-1.1444350814234507
30,-1.2507932954212697,-1.3386600134218758,-1.1671721369004455
30.5,-1.27584590035057,-1.3661305638306882,-1.19008260842317
31,-1.3011449655912102,-1.3939206281788312,-1.2131761686131377
31.5,-1.326701661251925,-1.4220420901387865,-1.2364624806082525
32,-1.3525269362696621,-1.450506210840854,-1.2599511726017167
33,-1.4050255215264766,-1.5085036129646077,-1.3075738527696952
34,-1.4587212627243749,-1.5679855425682905,-1.3561193008217793
35,-1.5136862696513311,-1.6290058192131391,-1.4056596830220034
36,-1.5699810732774921,-1.691594095157888,-1.4562626072609535
37,-1.6276510193095655,-1.7557502612716795,-1.5079891513220574
39,-1.7471976519773402,-1.8885841236037202,-1.6150105376871273
40,-1.809052304442642,-1.9570657925202373,-1.670372454018258
41,-1.872229891215313,-2.0267170879110323,-1.7269861001565419
42,-1.9366393095343106,-2.0973247473781114,-1.7848395816411495
43.2,-2.0153738260672056,-2.1829521535906404,-1.855848338206296
44.5,-2.1021206968013963,-2.2762534992786807,-1.9345982279965306
45.8,-2.189919342310271,-2.369410000180231,-2.0150275047606994
47.5,-2.3053937223680876,-2.4897627578431725,-2.1222195873731478
48.8,-2.39342038685853,-2.5797544614724526,-2.2052265752234557
50,-2.4738558974708114,-2.660632855659579,-2.2822001416777127
51.5,-2.5725420569578454,-2.7581212295984616,-2.3782590774352443
53,-2.6683751496226753,-2.851031205593386,-2.473379224662411
55,-2.7905277266967565,-2.967146215381498,-2.597380483665009
56.5,-2.877285506910423,-3.0482159851546067,-2.687349505382101
58,-2.9595524137859766,-3.124164461411266,-2.7740817164298397
60,-3.062072297546597,-3.2177596079880035,-2.883983892192394
61.5,-3.1336298926179795,-3.282533427030758,-2.961777747108064
63,-3.200770908330825,-3.3429931745392945,-3.0354772689621967
64.5,-3.263703984438406,-3.3994582459892184,-3.105089040491739
66,-3.3226760498055334,-3.452247995100484,-3.170703070833005
67.5,-3.3779531717571456,-3.5016711082038694,-3.2324698749674394
68.8,-3.423080827698953,-3.542007110000444,-3.283035936511826
70,-3.4626050568698354,-3.577344153025756,-3.327394637431107
71.5,-3.5093383188256273,-3.6191583373839453,-3.379893723705232
73.2,-3.559002125468552,-3.663656373652785,-3.4356998770052316
75,-3.60811789512087,-3.707750648692109,-3.490859324563063
76.5,-3.646575735390832,-3.742352435417049,-3.5339992393010857
78,-3.682987806202618,-3.775185370515624,-3.5747839721816965
