Frequency,Nominal,Min,Max
0.041,-17.780705869700796,-17.749607121736418,-17.811263051025296
0.042,-17.345111016879073,-17.314000423456097,-17.37567864475191
0.0432,-16.84901127602733,-16.817886127732134,-16.87959172117057
0.0445,-16.341756349682587,-16.31061500758116,-16.37235103424018
0.0458,-15.863290405497217,-15.832132419228131,-15.893899705406069
0.0475,-15.277110461969228,-15.24593001937452,-15.307739453339874
0.0488,-14.856403645907628,-14.825205494552224,-14.887048146451464
0.05,-14.487469758175127,-14.456254842198112,-14.51812892740194
0.0515,-14.050471519289045,-14.01923507645921,-14.081149506891048
0.053,-13.638199493223407,-13.60694088164209,-13.668896842511087
0.055,-13.123469338938005,-13.092180157562657,-13.154193361322594
0.0565,-12.761325034779812,-12.730012158184469,-12.792069713813108
0.058,-12.417902730137492,-12.38656549247401,-12.44866863157436
0.06,-11.98670205499423,-11.955331288565173,-12.017497143468276
0.0615,-11.68169522375141,-11.650298516735221,-11.712512877921059
0.063,-11.391202846861557,-11.359779511488979,-11.422043651933564
0.0645,-11.114212037525544,-11.082761379619019,-11.145076584227402
0.066,-10.849801987624527,-10.818323306626633,-10.880690872117059
0.0675,-10.597133736740995,-10.56562632572177,-10.628047560555748
0.0688,-10.387058597783659,-10.355525710651602,-10.417994526369725
0.07,-10.200062073944437,-10.168505191252397,-10.231018814496377
0.0715,-9.975134313603016,-9.943546784459459,-10.006117623558797
0.0732,-9.731348243704405,-9.69972509847465,-9.762362416654868
0.075,-9.485253908746001,-9.453592019079924,-9.516301638159383
0.0765,-9.289010913537307,-9.257315916881966,-9.320087303056349
0.078,-9.100305760119268,-9.068576903907902,-9.13141144856279
0.08,-8.85969119648042,-8.827916011786037,-8.890836953261358
0.082,-8.630796185602733,-8.59897330610198,-8.661983169057144
0.084,-8.412783112326697,-8.380911155047066,-8.444012493978335
0.086,-8.204892273591067,-8.172969838588562,-8.236165238355044
0.088,-8.006433024662643,-7.974458694683659,-8.037750771066852
0.09,-7.81677610586571,-7.784748445995305,-7.848139846287526
0.092,-7.6353469701703185,-7.6032645274686175,-7.666757931086502
0.094,-7.461619962575533,-7.429481265703781,-7.493079384823582
0.096,-7.295113227067867,-7.262916785905377,-7.326622366117375
0.098,-7.135384237215727,-7.103128542468795,-7.166944363448515
0.1,-6.982025863091034,-6.949709385894764,-7.013638262089014
0.102,-6.8346629009046245,-6.80228409241842,-6.866328873744494
0.104,-6.692949003067142,-6.660506294064619,-6.724669866621157
0.106,-6.556563955789174,-6.524055756243067,-6.588341043031335
0.108,-6.425211259169327,-6.392635957831978,-6.457045919486377
0.11,-6.298615971271862,-6.265971935251772,-6.330509570778608
0.112,-6.1765227831952805,-6.1438083575302125,-6.208476705053783
0.115,-6.001309643893951,-5.968486481368803,-6.033356680794557
0.118,-5.834962281973578,-5.80202653042855,-5.867105645189859
0.12,-5.728660380482042,-5.695647390100282,-5.76086977566768
0.122,-5.62582406037188,-5.592732059342127,-5.658100960821305
0.125,-5.477702708676695,-5.4444888154172935,-5.510083671153064
0.128,-5.336479832037802,-5.303139919179785,-5.368968279955828
0.13,-5.245927168419416,-5.212500906451761,-5.278489208376381
0.132,-5.158098182435565,-5.1245836717391775,-5.190735386214961
0.135,-5.031195855815348,-4.997545351320974,-5.063948797829153
0.138,-4.9097648518536445,-4.875973926274719,-4.9426371866502565
0.14,-4.831676064732352,-4.797789018788514,-4.864630061034404
0.142,-4.755765953404944,-4.721780748727415,-4.788803289969255
0.145,-4.645787657757761,-4.611651329392931,-4.678953201502517
0.148,-4.540220204181017,-4.50592800055977,-4.5735178598736494
0.15,-4.472160963040497,-4.4377621525859725,-4.505548901500325
0.155,-4.309602820255343,-4.274927853134984,-4.343224367862869
0.16,-4.157068993124518,-4.12210370424614,-4.190935744273148
0.165,-4.013641598077294,-3.978371317014397,-4.047765539578499
0.17,-3.878510516383625,-3.842920053565281,-3.9129040394652836
0.175,-3.7509579931459833,-3.715031627305768,-3.78563390485936
0.18,-3.6303458035709353,-3.5940672707433703,-3.6653173374548893
0.185,-3.5161045009177814,-3.479456985312793,-3.5513853267472424
0.19,-3.407724362767628,-3.370690489900559,-3.4433285951891515
0.195,-3.3047477309086686,-3.2673095634155125,-3.340689936738904
0.2,-3.2067625010906653,-3.1689015377156715,-3.243057705023568
0.205,-3.1133965664795746,-3.075093744785368,-3.1500602549150796
0.21,-3.0243130560276423,-2.9855487594464596,-3.061361178698224
0.215,-2.939206238535699,-2.899960308454202,-2.9766552075675023
0.22,-2.8577979867006604,-2.81804974034969,-2.89566467270294
0.225,-2.779834714255961,-2.739562969259879,-2.81813643898614
0.23,-2.7050847144474406,-2.6642678209745467,-2.7438392395496294
0.235,-2.633335840325223,-2.5919517218696093,-2.672561351587566
0.24,-2.5643934772762997,-2.522419681190631,-2.6041085637976216
0.245,-2.4980787663408814,-2.4554925253263584,-2.5383023939403477
0.25,-2.434227043512587,-2.391005349353519,-2.474978521658416
0.255,-2.372686465704318,-2.328806156606065,-2.4139854071801192
0.26,-2.3133167985932457,-2.268754661538688,-2.355183071064936
0.27,-2.200580998132387,-2.1545859732753994,-2.243642258092786
0.275,-2.1469833977276767,-2.1002378778321056,-2.190672496175906
0.28,-2.0950921871324213,-2.047574128843316,-2.139429332942458
0.285,-2.0448113489191875,-1.9964994448357989,-2.089816609702049
0.29,-1.9960516159965889,-1.946925516278246,-2.041744801211481
0.295,-1.9487299475516153,-1.898770505132544,-1.9951304768021572
0.3,-1.902769062792073,-1.851958602520022,-1.949895818444212
0.305,-1.8580970260453356,-1.8064196375589727,-1.905968189422399
0.31,-1.814646877525068,-1.762088731065425,-1.8632797481026286
0.315,-1.7723563047035058,-1.718905988307832,-1.8217671019497619
0.32,-1.7311673497410214,-1.6768162253906889,-1.7813709975345604
0.33,-1.6518826997459963,-1.5957170105370446,-1.7037104579095825
0.34,-1.5764071293798436,-1.518435069337308,-1.629897025700621
0.35,-1.504410457235864,-1.4446761123418341,-1.559580790943741
0.36,-1.4356129188051858,-1.3742018853515816,-1.4924575522889507
0.37,-1.3697807464123501,-1.3068245906577394,-1.4282643689531829
0.39,-1.2462835062569575,-1.1808258266609661,-1.3078012358532318
0.4,-1.1883450646638054,-1.1220246171645214,-1.251181171924915
0.41,-1.1328166473827952,-1.0659456387189097,-1.1967854297916596
0.42,-1.0796325593875282,-1.012551727527763,-1.1445099308247149
0.432,-1.0188414836447617,-0.9519801793950067,-1.084465629067618
0.445,-0.9566538943906804,-0.890609603562188,-1.0226146648964654
0.458,-0.8982292563672577,-0.8335675522880939,-0.9640033327804903
0.475,-0.827411093798854,-0.7652897925591923,-0.892150611390123
0.488,-0.777429728461341,-0.7176888011521305,-0.8408147788940092
0.5,-0.7344049408681377,-0.6770970228625481,-0.7961632602771128
0.515,-0.6846587069625744,-0.6305844492595226,-0.7439719451234762
0.53,-0.6391613811881135,-0.5884053317966825,-0.6956960630809282
0.55,-0.584611921310322,-0.5382231641328725,-0.6371468708070853
0.565,-0.5478856309141868,-0.5046300747908892,-0.5973459445616858
0.58,-0.5143992623154447,-0.4741016889181457,-0.5608200435108309
0.6,-0.47426585693545514,-0.4375988936310347,-0.5167964769401366
0.615,-0.4471821526509563,-0.4129933411374501,-0.48696913397667146
0.63,-0.4223926342909429,-0.39047570058053427,-0.45960970994410477
0.645,-0.39966063119284273,-0.3698191027653093,-0.43449020060391913
0.66,-0.3787731295393767,-0.35082364502706437,-0.41139759237224166
0.675,-0.35953979580890616,-0.33331363417943993,-0.39013576050625826
0.688,-0.34407763099134026,-0.3192201318719371,-0.373051232857644
0.7,-0.3307092852538705,-0.3070209403404159,-0.35829049261245205
0.715,-0.3151110366599331,-0.2927681018837499,-0.3410840419402045
0.732,-0.2987838407738718,-0.27782521100472996,-0.3230973594834452
0.75,-0.28289464796874636,-0.2632574563108969,-0.3056213424559951
0.765,-0.2706381757578283,-0.25200175742047287,-0.29216248445640636
0.78,-0.25918926250594726,-0.24147235643242054,-0.27960911626224844
0.8,-0.24505637027337296,-0.22845334962770467,-0.2641396401211697
0.82,-0.2320815718278705,-0.21647992866692375,-0.24996542272992933
0.84,-0.22013618228555099,-0.20543810271934418,-0.2369402778661158
0.86,-0.20910927053449901,-0.1952294532624251,-0.22493815140449216
0.88,-0.19890482510302424,-0.1857686295708502,-0.21385001001345338
0.9,-0.18943941204448642,-0.1769812945631265,-0.2035812243147034
0.92,-0.1806402381013996,-0.1688024346140002,-0.19404937708602157
0.94,-0.17244354616249205,-0.16117496369668163,-0.18518243085865577
0.96,-0.16479328261957216,-0.1540485659806561,-0.17691719630248326
0.98,-0.15763998715759714,-0.14737873213604333,-0.16919805080896638
1,-0.15093986469982898,-0.14112595350538576,-0.16197586449831541
1.02,-0.14465400681115256,-0.13525504540242722,-0.15520709795408352
1.04,-0.13874773604477103,-0.1297345764393759,-0.1488530421346815
1.06,-0.13319005172329465,-0.12453638526597638,-0.1428791761163744
1.08,-0.12795315968256485,-0.11963516966691189,-0.13725462266086869
1.1,-0.12301207175692008,-0.1150081358019373,-0.13195168518065753
1.12,-0.11834426340067315,-0.11063469763886807,-0.12694545261107115
1.15,-0.11181095458580569,-0.10450974194612767,-0.11994388256362555
1.18,-0.10578633550221535,-0.09885802760301637,-0.11349287818573883
1.2,-0.1020262052489068,-0.09532892562709523,-0.10946917385710907
1.22,-0.09845470732917189,-0.09197568763411125,-0.10564908023988293
1.25,-0.09342369515273845,-0.08725024449637855,-0.10027069530485698
1.28,-0.0887504250139112,-0.08285891548327746,-0.09527759616430706
1.3,-0.08581682192175248,-0.0801013998434428,-0.09214457116220405
1.32,-0.08301814066754393,-0.07747008366042389,-0.0891565773890754
1.35,-0.07905514429964183,-0.07374307367541201,-0.0849270258113459
1.38,-0.07535188864360987,-0.07025931306377295,-0.08097623168151828
1.4,-0.07301612156806488,-0.0680615001932814,-0.07848507309382026
1.42,-0.07077966920639409,-0.0659567946030639,-0.07610035439065989
1.45,-0.06759901191852412,-0.06296295038905284,-0.07270967847972688
1.48,-0.06461191531198833,-0.06015072785279907,-0.06952621248165296
1.5,-0.0627202991582011,-0.05836957881555705,-0.0675106612427597
1.55,-0.05831021914240035,-0.054216255847508985,-0.06281284135275683
1.6,-0.0543100894518161,-0.050448123361020676,-0.058553090466215686
1.65,-0.050670233856716554,-0.04701868854761576,-0.05467804890617767
1.7,-0.04734835277504148,-0.043888322923060046,-0.05114233962642351
1.75,-0.04430823203136906,-0.041023069846804844,-0.04790715749118463
1.8,-0.041518710963479255,-0.03839368935326933,-0.04493914511968895
1.85,-0.03895285130236251,-0.03597488725738321,-0.04220948976197949
1.9,-0.03658726289079872,-0.03374468860346609,-0.0396931922650374
1.95,-0.034401552949222536,-0.03168392509700247,-0.03736847119351593
2,-0.0323778734233555,-0.029775813223770927,-0.03521627395610241
2.05,-0.030500546762412737,-0.028005605029174614,-0.03321987328899029
2.1,-0.028755754838848936,-0.026360297496586343,-0.03136453230553097
2.15,-0.027131279023172375,-0.024828389475468234,-0.029637224985265834
2.2,-0.025616281949066348,-0.023399677416376323,-0.02802640176381559
2.25,-0.024201123444941044,-0.0220650829497087,-0.026521792024427837
2.3,-0.022877204613090934,-0.020816506728435647,-0.0251142369461202
2.35,-0.021636835212958165,-0.01964670403770222,-0.023795547451674535
2.4,-0.02047312042892893,-0.018549178526959132,-0.02255838300901673
2.45,-0.019379863833950083,-0.017518091096060603,-0.02139614783688998
2.5,-0.018351483941806326,-0.016548181505385652,-0.02030290169890533
2.55,-0.017382942206242775,-0.015634700711674783,-0.01927328297574598
2.6,-0.01646968069944994,-0.01477335227896747,-0.018302442111387793
2.7,-0.014792852106708698,-0.013191831056165948,-0.01651991700197522
2.75,-0.01402211925364256,-0.012464902357686781,-0.015700610498595065
2.8,-0.013292257949685193,-0.011776521605938424,-0.01492475506348675
2.85,-0.012600427346705531,-0.011124010062627507,-0.014189329485763437
2.9,-0.011944029435949214,-0.010504917861898123,-0.01349157099137028
2.95,-0.011320684523138145,-0.009917000914735874,-0.012828949113259656
3,-0.010728209550500379,-0.009358200491123478,-0.012199142599861513
3.05,-0.010164598893373658,-0.008826625130307743,-0.011600018963560322
3.1,-0.00962800731307421,-0.00832053458017774,-0.01102961632887201
3.15,-0.009116734793166725,-0.007838325509353225,-0.010486127288732073
3.2,-0.008629213024599666,-0.007378518771529731,-0.009967884518369975
3.3,-0.007719735905673338,-0.00652074959247702,-0.009001093188686261
3.4,-0.006889235657239346,-0.005737474214841281,-0.008118249918036774
3.5,-0.006128826725916905,-0.005020311689974794,-0.007309909171315628
3.6,-0.005430839308663958,-0.004362027636549037,-0.006567918050613485
3.7,-0.004788624975359035,-0.0037563509710837164,-0.0058852095448430055
3.9,-0.0036491026399718077,-0.0026816787248112087,-0.004673816903668911
4,-0.0031423085922522333,-0.002203735323841581,-0.004135049887877631
4.1,-0.002672117273523155,-0.0017603166886723462,-0.003635188921830192
4.2,-0.002235088483504495,-0.0013481777925936082,-0.00317057742690685
4.32,-0.0017501652925023948,-0.0008908790578712518,-0.0026550416273529273
4.45,-0.001268447590222626,-0.00043661116981390415,-0.0021429054271761045
4.58,-0.0008271485074866005,-0.000020466539336978957,-0.0016737320159363467
4.75,-0.0003038152995778069,0.00047302519164911744,-0.0011173314670644675
4.88,0.000060030075678187546,0.000816115428144492,-0.0007304879199450655
5,0.0003710122748242287,0.0011093521709645289,-0.0003998429410268697
5.15,0.0007295865400327595,0.0014474577967176399,-0.00001858907327651508
5.3,0.0010581448679788828,0.0017572530464648219,0.0003307584310012601
5.5,0.0014550949762335774,0.002131522990932291,0.0007528368365579698
5.65,0.0017255440212873363,0.0023865115155627522,0.0010404145538150708
5.8,0.001975271074123669,0.0026219560216250394,0.0013059646467489857
6,0.0022795324257089545,0.0029088061933838973,0.0016295143109827867
6.15,0.0024884976889716446,0.0031058066404275556,0.0018517337727488158
6.3,0.0026827003461713313,0.0032888841281054357,0.0020582600491586335
6.45,0.0028634966515542555,0.0034593179173959526,0.0022505347546670643
6.6,0.0030320906494304546,0.0036182437047614373,0.0024298377132460957
6.75,0.003189554226077234,0.003766672536360575,0.00259730827105633
6.88,0.0033177615735024333,0.0038875200530854685,0.002733667219774985
7,0.0034298119478235597,0.003993135181315986,0.0028528449854224665
7.15,0.003562004385537852,0.004117731856422661,0.002993449977770808
7.32,0.0037020886929267274,0.004249762253211975,0.0031424540838474453
7.5,0.003840130889425867,0.0043798629242102795,0.003289291498672814
7.65,0.003947783428683451,0.0044813185893452226,0.0034038070387740057
7.8,0.004049269650299868,0.004576959827870985,0.003511766586471021
8,0.004175783200814451,0.004696182668040843,0.003646354775403434
8.2,0.00429312721944209,0.00480676003319002,0.003771193349231885
8.4,0.00440216491863281,0.0049095062961512755,0.003887199736176915
8.6,0.004503660464168559,0.005005142420984522,0.003995186070301674
8.8,0.004598292320939585,0.005094308550289431,0.004095873377828385
9,0.004686664547267601,0.005177574657551525,0.004189903582914855
9.2,0.004769316390391754,0.005255449597129766,0.0042778497076782565
9.4,0.004846730468985323,0.0053283888215304625,0.004360224570311084
9.6,0.004919339775572452,0.005396800985619314,0.004437488228805339
9.8,0.00498753368941185,0.005461053617520582,0.004510054372839355
10,0.00505166315648128,0.005521478003944215,0.004578295830315955
10.2,0.005112045165846381,0.005578373411883453,0.00464254932597056
10.4,0.005168966629552503,0.005632010747736971,0.004703119605930579
10.6,0.005222687755168832,0.005682635737922523,0.004760283022965358
10.8,0.005273444985406621,0.005730471701176362,0.004814290661533556
11,0.005321453567173728,0.005775721971357722,0.004865371068916384
11.2,0.005366909802501007,0.0058185720202145385,0.004913732648174043
11.5,0.005430696592469536,0.005878713436736503,0.004981589154721866
11.8,0.005489683171214689,0.005934345246917077,0.0050443286964725045
12,0.005526578591682565,0.005969152663436153,0.005083564625090871
12.2,0.005561680557653206,0.006002277334780954,0.005120887017672057
12.5,0.005611223966978425,0.006049048777597298,0.005173551214577704
12.8,0.0056573499541754104,0.006092618815598601,0.005222565041682674
13,0.005686360082104433,0.0061200366222138695,0.005253380423623951
13.2,0.005714078161454282,0.00614624642955602,0.005282813737094149
13.5,0.005753403875635049,0.00618345843175258,0.005324553603919719
13.8,0.005790241950425501,0.006218350221406552,0.0053636279095181615
14,0.005813527222002482,0.006240425464046153,0.005388311450953333
14.2,0.005835863233840338,0.006261617953336825,0.005411975683429126
14.5,0.005867706796428779,0.006291865018157378,0.00544568702274444
14.8,0.005897708188043819,0.006320405118362611,0.005477415180315558
15,0.005916762503598422,0.006338556667056197,0.005497546600605556
15.5,0.005961387371381251,0.006381160441285835,0.005544621476241593
16,0.0060021710083877685,0.006420238942892993,0.005587532896389628
16.5,0.006039618160873933,0.006456274837655531,0.005626811797432302
17,0.0060741635043192925,0.006489684796197569,0.005662914536999413
17.5,0.0061061835174114005,0.0065208306833355045,0.005696235523853846
18,0.006136006077283638,0.0065500285979792445,0.005727117425307442
18.5,0.006163918261609765,0.006577556221368783,0.0057558594685135
19,0.006190172729674759,0.006603658824378742,0.005782724231351671
19.5,0.00621499296975515,0.006628554204638675,0.005807943228498777
20,0.006238577636265528,0.006652436763950683,0.005831721530386443
20.5,0.0062611041516229095,0.006675480890714575,0.005854241601195975
21,0.00628273171067147,0.006697843777045381,0.005875666502606711
21.5,0.006303603796916964,0.006719667773272119,0.005896142579633572
22,0.0063238502976387875,0.006741082361556854,0.00591580172132708
22.5,0.006343589287628864,0.006762205814007542,0.00593476327071662
23,0.006362928537700377,0.006783146587793911,0.005953135643933221
23.5,0.006381966793356345,0.006804004499601802,0.005971017707037433
24,0.006400794860461558,0.006824871713669681,0.0059884999500134746
24.5,0.006419496527930916,0.00684583357117955,0.006005665490151041
25,0.006438149351960208,0.006866969283573348,0.006022590931224138
25.5,0.006456825321894579,0.006888352508166228,0.006039347100186704
26,0.006475591424235939,0.006910051821024506,0.006055999679303173
27,0.006513639735133442,0.006954649823044171,0.00608923425047564
27.5,0.00653303480760251,0.0069776633044109845,0.0061059263880298845
28,0.006552746341414682,0.007001222851252614,0.006122735963348862
28.5,0.006572822031170326,0.007025375870213942,0.006139709665072567
29,0.006593306427914568,0.007050165914077828,0.006156891309784485
29.5,0.006614241062030428,0.007075632677124476,0.006174322042587048
30,0.006635664525083214,0.007101811941851817,0.006192040500894543
30.5,0.0066576125135843585,0.0071287354800843306,0.0062100829448604586
31,0.006680117837192748,0.007156430911368416,0.006228483357292502
31.5,0.0067032103935388285,0.0071849215215974115,0.006247273515443497
32,0.006726917111632926,0.0072142260450255265,0.006266483036687282
33,0.006776265361248696,0.00727532747500911,0.0063062679432124595
34,0.006828314692818693,0.00733978381754032,0.00634803206317974
35,0.006883161488724028,0.007407552241520957,0.006391933910226817
36,0.0069408402325786675,0.007478487831928885,0.006438094232929783
37,0.007001316360856198,0.0075523333220614735,0.0064865926368069616
39,0.007130131868480686,0.007707115351702747,0.0065906900056001555
40,0.00719799041409577,0.007786917370891336,0.006646200821538635
41,0.00726767419003216,0.007867366897313469,0.006703862792461188
42,0.0073387075975823975,0.00794760954319493,0.006763477191529987
43.2,0.007424923763810683,0.0080423061522465,0.006837209181815083
44.5,0.0075182674128476765,0.008141056093043282,0.006919120693988076
45.8,0.007609966993476683,0.008233696806551364,0.007002218075301157
47.5,0.007724522246061173,0.008342274737617904,0.007110773424355346
