Frequency,Nominal,Min,Max
1.9748417658131499,0.02286499182920033,0.021496195858068553,0.024259309746648482
2.0248456731316584,0.022871376340708918,0.021501553493740985,0.02426685910447577
2.074849392124643,0.02287790735206257,0.02150703527166102,0.024274579897280428
2.124852936087578,0.02288458397904212,0.02151264052281325,0.024282470974826373
2.1748563170931545,0.022891405326467405,0.021518368568786434,0.02429053117477157
2.224859546128699,0.02289837048895411,0.021524218722260655,0.024298759323817108
2.274862633215465,0.022905478551689205,0.021530190287527097,0.024307154238877283
2.3248655875125337,0.022912728591228847,0.021536282560996548,0.024315714728270522
2.3748684174075834,0.022920119676320044,0.021542494831740373,0.024324439592948277
2.4248711305964283,0.022927650868715437,0.021548826382031656,0.02433332762773055
2.4748737341529163,0.02293532122403433,0.021555276487890882,0.024342377622586994
2.5248762345905194,0.02294312979261913,0.021561844419668866,0.02435158836392933
2.5748786379167465,0.02295107562042062,0.02156852944260301,0.024360958635929436
2.649528259898354,0.022963266485400285,0.02157878930917837,0.024375330063695886
2.7248853186877424,0.022975727071687525,0.021589279646639297,0.024390014472498396
2.7748873851023212,0.022984212339752053,0.021596425605353766,0.02440001071173641
2.824889378365107,0.02299283006287583,0.02160368492583585,0.02441016041688216
2.8748913022930105,0.02300157928007299,0.021611056855430077,0.024420462387782463
2.924893160441933,0.02301045903259427,0.021618540640721332,0.0244309154319626
2.9748949561287037,0.023019468364927742,0.02162613552819703,0.024441518366143097
3.0248966924508345,0.023028606325832115,0.021633840764917804,0.024452270017757665
3.0748983723043595,0.023037871969376227,0.021641655599207582,0.024463169226524275
3.124899998399949,0.023047264355998194,0.021649579281344887,0.024474214846002172
3.1749015732775088,0.023056782553564706,0.02165761106426354,0.02448540574520736
3.249615361854384,0.023071309167607468,0.021669873083029718,0.024502479877999167
3.349626844888845,0.023091088978679456,0.021686575998935902,0.024525719614151887
3.449637662132068,0.023111355761527827,0.02170369809006433,0.024549521088194776
3.5496478698597698,0.023132102607159394,0.021721233633410133,0.024573876277821715
3.6496575181789317,0.023153322861458294,0.0217391770381355,0.024598777609730955
3.7986839826445156,0.02318608432374803,0.021766894376186972,0.024637204504392725
3.9496835316262997,0.023219762166456902,0.021795401029737593,0.024676690656189045
4.049691346263317,0.023242815965776962,0.021814923511792046,0.024703711805383874
4.149698784249286,0.0232663150907673,0.021834828787976338,0.024731249980229367
4.2595774438317235,0.023292681377131558,0.021857168519217617,0.024762144152397594
4.384518217546827,0.023323279919302588,0.021883099969597208,0.024797995243242672
4.514532090925925,0.023355815588483854,0.021910677655063632,0.024836117442780355
4.664225552007536,0.02339428156327056,0.021943284447212906,0.02488119680560009
4.814561246884289,0.02343366875162048,0.021976670496895313,0.024927372163080393
4.9396356140913875,0.023467240845204428,0.02200512232949799,0.024966750631778365
5.07444578254611,0.02350427209914226,0.022036495853082406,0.02501021602467683
5.2244616947586096,0.023546326781373795,0.022072107868113033,0.025059622804576593
5.399073994677235,0.023596669605382564,0.02211470359721964,0.025118848255091107
5.574495492867494,0.023648316483052902,0.0221583557930286,0.025179711122317136
5.724508712544685,0.023693731545235477,0.022196688984281676,0.025233339150138322
5.89915248150105,0.023748099133555384,0.022242501847580382,0.02529769438072906
6.074537019394977,0.02380390275548122,0.02228943144096162,0.025363933632423178
6.224548176373929,0.023853018992941073,0.022330641779753132,0.025422418957039707
6.374558808262734,0.023903347697895,0.022372768874837728,0.025482538691998655
6.524568951279464,0.023954948680365507,0.022415845809868298,0.025544393338555283
6.674578638386096,0.02400788936393172,0.02245991071586783,0.025608094537799764
6.814690014960328,0.024058560236669385,0.02250195637338428,0.02566930173325481
6.9397406291589885,0.024104904410013863,0.022540292769390693,0.02572549766644043
7.074602462329597,0.024156213043531972,0.02258259468600009,0.025787966098987786
7.234500673854416,0.024218759900076107,0.02263396051185823,0.02586447480229691
7.409453421137082,0.024289473310411997,0.02269175837531908,0.025951455961078243
7.574628703771558,0.024358472198655275,0.022747872530768973,0.02603682009801301
7.72463591375024,0.02442337541391677,0.022800389086261367,0.02611757778335457
7.899367063252599,0.024501943849520334,0.022863612091518493,0.02621593903505925
8.099382692526634,0.02459560022653169,0.02293850152785714,0.02633399364776554
8.299397568498572,0.024693829280949785,0.023016492122972666,0.026458743644777696
8.499411744350311,0.024797042142802247,0.023097847277917843,0.026590805712940584
8.699425268372618,0.024905681448209555,0.02318285308264983,0.026730838056185872
8.899438184514796,0.025020221340001293,0.023271818630721884,0.02687953950618563
9.09945053286186,0.02514116724668855,0.023365076227275294,0.027037648163754188
9.299462350050135,0.025269055409089754,0.023462981477881867,0.02720593949478199
9.499473669630333,0.025404452118166526,0.023565913243799856,0.027385223789515224
9.699484522385713,0.025547952620760615,0.023674273446751562,0.02757634287663016
9.899494936611665,0.025700179641838496,0.023788486703411785,0.027791402415514897
10.099504938362077,0.025861781462481914,0.02390899976627948,0.028030436314103895
10.299514551666986,0.026033429482084064,0.024036280743539175,0.028283220955015294
10.499523798725349,0.026215815180980512,0.02417081806569417,0.02855064136886361
10.699532700076205,0.026409646386110354,0.024279672786358647,0.028833585539734134
10.89954127475097,0.0266156427272361,0.02439124474818574,0.02914447047153922
11.099549540409285,0.02683453015502993,0.024513065325394483,0.029487041729788818
11.349008767288884,0.027128128351716983,0.024681238590983513,0.029940488736636857
11.64903429473877,0.027509640909277964,0.024906308441985166,0.030520992516742416
11.899579824514815,0.027853326895348522,0.025114465085187845,0.03103630819554106
12.099586769803338,0.028147245588371058,0.025296247661289732,0.031471328910947394
12.349089035228468,0.028539403437079912,0.025543564259102564,0.03204403349151542
12.649110640673518,0.029045137604881043,0.02586921674859221,0.03277091562047579
12.89961239727768,0.029496607257916918,0.026165676106659118,0.033408990600172335
13.099618315050252,0.029879090528087217,0.026421040295385896,0.03394104339603933
13.349157276772193,0.030383806151078895,0.02676365315887788,0.034630876715381995
13.649175799292792,0.03102526654044936,0.027207551130406658,0.035488095545132436
13.899640283115243,0.031588456069756465,0.02760507926394361,0.03622184597608177
14.099645385611653,0.032057710768801255,0.027942444011120268,0.0368178161802526
14.349216006458331,0.03266517547116381,0.02838800618189366,0.037566707650607545
14.64923206178399,0.033418117940426526,0.028954394596042432,0.03845858361183602
14.89966442575134,0.03406057318009451,0.029451466593544653,0.03918431162967263
15.247950681976906,0.03497152706022098,0.0301864785677992,0.04013833232824038
15.748015748023622,0.036254961598850485,0.03128925555250032,0.04132484691703961
16.24807680927192,0.03744968227369787,0.03242891872363692,0.04218669902486165
16.748134224444225,0.03846440017690039,0.03355873048537157,0.04261023002031036
17.24818831066034,0.03920131994634283,0.034617766812426856,0.0425130609922032
17.74823934929885,0.039570358926510577,0.035533614227339534,0.042123800179009616
18.24828759089466,0.03950576919854999,0.03622866198252922,0.041513833405956824
18.748333259252675,0.03898020495925662,0.03662986566862958,0.04103593813886804
19.248376554920156,0.03801108520878698,0.036102518623455704,0.040030692540307236
19.748417658131498,0.03665669839707561,0.03417243763605082,0.03856420687107434
20.248456731316587,0.0350036376070887,0.03198888950894154,0.036939107760570404
20.74849392124643,0.03315032401649057,0.029808726501081705,0.035410806885690815
21.24852936087578,0.031191866510218845,0.02770004897749348,0.03390359430678873
21.748563170931547,0.029209645331028516,0.025706903239123283,0.03231164760013897
22.24859546128699,0.027266434032718587,0.023853629961296023,0.030590979938256005
22.74862633215465,0.025406012826437313,0.022149990875778822,0.028823464473342095
23.24865587512534,0.02365552587314658,0.02059170247376449,0.027059266569956573
23.748684174075834,0.02202899252826031,0.01916213327596054,0.02533986838334974
24.24871130596428,0.02053089686535087,0.0178678352618619,0.023696334123755165
24.748737341529164,0.01915929488965603,0.01669737400786985,0.022147891100168276
25.248762345905195,0.017908246481805848,0.01563893815567122,0.02071130940394389
25.748786379167466,0.016769587383349143,0.01468105852747199,0.019383514138883153
26.49528259898354,0.01526334725184704,0.013418988192860597,0.01760101885922046
27.248853186877426,0.01393567934048679,0.012308139968476064,0.016014611959413533
27.748873851023216,0.013154994107855533,0.011654654769560652,0.015076410929056032
28.24889378365107,0.012442628848648772,0.011057568471160396,0.014218596616903039
28.7489130229301,0.011791458364010632,0.01051076045441463,0.013433916944404867
29.248931604419333,0.01119508755604711,0.010008851258591907,0.012715479165825563
29.748949561287034,0.01064781360276615,0.009547117626594537,0.012056873536183831
30.24896692450835,0.01014457221474115,0.0091214126971857,0.01145222755672021
30.748983723043597,0.009680877442018704,0.008728093308440023,0.010896215945623532
31.24899998399949,0.009252760763664745,0.008363955082578173,0.010384043687027649
31.74901573277509,0.008856712751511907,0.008026175219673607,0.009911413832042828
32.49615361854384,0.008319195195100482,0.0075661382839295275,0.009272165060813851
33.49626844888845,0.0076839389052573235,0.007020198123824279,0.008519979434302822
34.49637662132068,0.0071315338143796885,0.006543260613893496,0.007869295142946998
35.4964786985977,0.006648175833339433,0.006124223587955301,0.007302729032896059
36.49657518178932,0.00622285182644975,0.0057541913631125735,0.0068064149869898755
37.986839826445156,0.0056796267131353495,0.005279834264615112,0.0061757091192337285
39.496835316262995,0.005214516110425484,0.004872543721737553,0.00563798703252476
40.496913462633174,0.004947766047571538,0.004638511558489771,0.005330637603245699
41.49698784249286,0.004708283241330961,0.0044282606923685686,0.005055200732366342
42.595774438317235,0.004472736329605482,0.004221449891415453,0.0047846406655419225
43.84518217546827,0.004235192420210474,0.0040130287038063605,0.004511974216064584
45.14532090925925,0.004017644771412598,0.0038224722485198457,0.004262233790044925
46.64225552007536,0.0037996308828997507,0.003629668630667665,0.004011641530212738
48.14561246884289,0.0036100453507818204,0.003459657179795708,0.00379317609470528
49.39635614091387,0.0034721922825815604,0.0033318305977962357,0.0036349266974688606
50.7444578254611,0.0033413820318046687,0.003210631080282372,0.003492001790992973
52.244616947586096,0.0032146656320069513,0.0030933993835456216,0.00335341685653705
53.99073994677235,0.0030895208685807977,0.0029779405224076476,0.003216244439526155
55.744954928674936,0.0029842996075923893,0.0028812554505477685,0.003100493082010649
57.245087125446844,0.0029092201359957265,0.002812662391659176,0.0030174562767204447
58.9915248150105,0.002837213102797499,0.002747407295520336,0.0029372017806787217
60.74537019394976,0.0027792127362290704,0.00269509091545443,0.0028718364015600972
62.245481763739285,0.002740356575831693,0.0026597604235911896,0.0028285354075196912
63.745588082627336,0.002710392123624937,0.0026329964254041627,0.002802635358434543
65.24568951279464,0.00268862102243754,0.002610991478680283,0.002785356972160949
66.74578638386096,0.0026744332240827597,0.002589122264464773,0.002777127878444312
68.14690014960328,0.002667490213719095,0.0025749089008638296,0.0027770187453546357
69.39740629158989,0.002666196024091686,0.00256704396512508,0.002782268503544092
70.74602462329597,0.0026697776049268533,0.0025634504764633446,0.002792987661442234
72.34500673854416,0.002680123963564871,0.002565203426496224,0.0028118593905492734
74.09453421137081,0.002698541212781606,0.0025741332274825095,0.002839641617701975
75.74628703771559,0.0027221593061284768,0.002588751685498718,0.002872077996720392
77.2463591375024,0.002748725553258103,0.0026071207754015625,0.0029065991103668434
78.99367063252599,0.0027854719013966646,0.002634334752383377,0.0029524729749025344
80.99382692526635,0.0028341437324371703,0.002672230457586735,0.003011264715255916
82.99397568498571,0.002889449462784709,0.0027169999075752184,0.0030761888896738395
84.99411744350311,0.0029506807841064276,0.002768075823402803,0.003146338962071343
86.99425268372619,0.003017096309128404,0.0028248826310014762,0.0032207487782206262
88.99438184514796,0.0030879068659039966,0.0028868220249803084,0.003301085374070346
90.9945053286186,0.0031622634762781847,0.002952438144646429,0.003384158741054295
92.99462350050136,0.003239248611213978,0.0030195472346759068,0.0034680640854793296
94.99473669630333,0.003317871464380099,0.003089811520476793,0.003551540960275826
96.99484522385713,0.0033970680678067165,0.003162417598595948,0.003633264259802581
98.99494936611666,0.0034757070616917487,0.0032364875751778486,0.0037118655621919557
100.99504938362078,0.0035526017961196735,0.0033110793408337178,0.003785962638798928
102.99514551666987,0.0036265291630290003,0.0033851914427813733,0.0038541964226016918
104.9952379872535,0.003696255123932251,0.003457773102826124,0.003915273880617272
106.99532700076205,0.0037605663274474,0.003527739717096061,0.003968014361327122
108.9954127475097,0.0038183065453306106,0.0035939938454971217,0.004011396224527648
110.99549540409286,0.003868415972921393,0.003655451264973915,0.0040446000609594464
113.49008767288886,0.003918436898945442,0.0037235822837742294,0.0040703514766902565
116.4903429473877,0.003959436042515433,0.0037910909608135884,0.004079061595759199
118.99579824514814,0.00397684482079123,0.0038338407517766668,0.004086014302791225
120.9958676980334,0.003978820267478223,0.0038577185078854884,0.004088118473288
123.4908903522847,0.003966639355214679,0.003866476907722792,0.00407571166802837
126.49110640673517,0.003933054092098421,0.0038069639413784045,0.004041470114906874
128.9961239727768,0.003890676830495779,0.003733938105617919,0.0040121944002087856
130.99618315050253,0.003847960441825727,0.003669033762044001,0.003985786325188238
133.49157276772192,0.003785361373521792,0.003581976568764943,0.003953993689090742
136.49175799292792,0.003700264247261575,0.0034722365999482006,0.003901894861058894
138.99640283115244,0.0036232399402666825,0.003378585567061776,0.0038486676048160176
140.99645385611655,0.0035588238146048662,0.00330348697533942,0.003800563305139502
143.49216006458332,0.003476500670968361,0.003210832557850033,0.003735221573753028
146.4923206178399,0.0033772760612043326,0.003102922885678887,0.0036518801020205523
148.9966442575134,0.003295674904498545,0.003016787839862386,0.003580020106444398
152.47950681976906,0.0031859146382925505,0.0029045271199564272,0.003478520610079047
157.48015748023622,0.0030402963651664713,0.002760352680690734,0.0033370775295007062
162.48076809271922,0.0029114389606603184,0.002637389401484828,0.003204983827251856
167.48134224444226,0.002800395369384326,0.002535136206012494,0.0030853618951921916
172.4818831066034,0.002706395416094844,0.0024518702346484735,0.0029789361855222887
177.48239349298848,0.002627502591527009,0.00238516777076334,0.0028847460911865575
182.4828759089466,0.0025611130871835055,0.0023322537296856074,0.0028007802785640266
187.48333259252675,0.002504317161288589,0.0022902278448105095,0.002724488855026899
192.48376554920156,0.0024541583153207206,0.0022562120881382255,0.002653175756254708
197.48417658131498,0.002407822454502326,0.0022274529484024317,0.0025842887289531874
202.48456731316588,0.0023627790797066863,0.0022014003629467135,0.0025156237765742986
207.4849392124643,0.002316885992728089,0.0021757748026915427,0.0024454557984655905
212.4852936087578,0.0022684610106556593,0.0021486260030254417,0.0023726032267255047
217.48563170931544,0.0022163199194382556,0.0021183813470526535,0.0022964337712114862
222.48595461286988,0.002159779327341277,0.002083879025752538,0.002225642654251629
227.48626332154652,0.002098625340436064,0.002038459472569868,0.00216012652669558
232.4865587512534,0.0020330526624700624,0.0019621132563307497,0.0020921214247312946
237.48684174075834,0.001963582272181994,0.0018830910919785397,0.0020281566819686904
242.4871130596428,0.0018909680227739635,0.0018024386991576601,0.0019660529604529514
247.48737341529164,0.0018161027538681732,0.0017212020982968358,0.0019004262153875934
252.48762345905195,0.0017399329238388125,0.0016403595269514635,0.0018319801567456351
257.48786379167467,0.0016633879893693361,0.001560775617095241,0.0017615254319010261
264.9528259898354,0.0015499172037170767,0.0014456572068200803,0.0016539353145195732
272.48853186877426,0.001439557534924848,0.0013360969916391585,0.0015464427441328633
277.48873851023217,0.001368983062300943,0.0012673535349109351,0.001476028513772837
282.4889378365107,0.0013011623147742575,0.0012020946856298956,0.0014072843317239614
287.489130229301,0.0012363604666637824,0.001140410231366365,0.0013406651386698408
292.4893160441933,0.0011747431649320624,0.0010823115924931369,0.0012765179321278855
297.4894956128703,0.0011163921868098782,0.001027748971729413,0.0012150904103251112
302.48966924508346,0.0010613210091421292,0.0009766265265553657,0.0011565426989676153
307.48983723043597,0.0010094893124887605,0.0009288152931155836,0.0011009604111615833
312.4899998399949,0.0009608158763206702,0.0008841638579353236,0.0010483677782901232
317.49015732775086,0.0009151896373217616,0.0008425069346263978,0.0009987400207070705
324.96153618543843,0.0008525088390888131,0.0007855784744407296,0.0009300573604702863
334.9626844888845,0.0007777882422428596,0.0007180699723347323,0.000847567401506422
344.9637662132068,0.0007126165978276058,0.0006594730972180875,0.0007751106592055029
354.96478698597696,0.0006557958142951217,0.0006085600460077633,0.0007116109217710164
364.9657518178932,0.0006062154046599781,0.0005642387609436775,0.0006559971553839514
379.86839826445157,0.0005438963614658326,0.0005086268565169484,0.0005858808950385821
394.96835316262997,0.0004915587912691638,0.00046195656727804156,0.0005268928566712669
404.96913462633177,0.0004621646795634961,0.0004357433469732949,0.0004937411410033522
414.9698784249286,0.000436174151280445,0.0004125528554441148,0.0004644318330133328
425.9577443831724,0.00041099702719197466,0.00039006752630239643,0.0004360558843792035
