Frequency,Nominal,Min,Max
1.95,-15.991205292810875,-16.95892138480589,-15.040059988641032
2,-16.40277514573648,-17.395588960245565,-15.426991514086266
2.05,-16.81445991986924,-17.832392424126123,-15.814019476973604
2.1,-17.226262252206368,-18.269334862277173,-16.201146111863505
2.15,-17.638184763829127,-18.706419339824052,-16.588373641274142
2.2,-18.05023005970554,-19.14364890096994,-16.9757042755123
2.25,-18.46240072850671,-19.581026568798645,-17.36314021251299
2.3,-18.874699342437115,-20.018555345098434,-17.750683637688475
2.35,-19.287128457079238,-20.456238210207307,-18.138336723786413
2.4,-19.699690611252997,-20.894078122880373,-18.526101630757744
2.45,-20.11238832688988,-21.332078020179527,-18.913980505634314
2.5,-20.525224108922494,-21.770240817386092,-19.30197548241635
2.55,-20.938200445189636,-22.208569407936817,-19.690088681970384
2.6,-21.35131980635721,-22.647066663383548,-20.07832221193724
2.7,-22.177997399831618,-23.5245785456766,-20.855158627067663
2.75,-22.591560487121992,-23.96359880618157,-21.24376566070717
2.8,-23.005276309237534,-24.40279899899283,-21.632501321603538
2.85,-23.4191472503693,-24.842181886496707,-22.021367650268587
2.9,-23.833175677410612,-25.28175020947679,-22.410366673666324
2.95,-24.24736393999731,-25.72150668725212,-22.79950040519931
3,-24.661714370566006,-26.161454017842694,-23.188770844706855
3.05,-25.076229284430983,-26.601594878162327,-23.578179978475376
3.1,-25.490910979879757,-27.04193192423977,-23.967729779261113
3.15,-25.905761738287723,-27.482467791467805,-24.35742220632532
3.2,-26.32078382425189,-27.92320509488154,-24.747259205482063
3.3,-27.15135095428576,-28.80529437048951,-25.527374636471134
3.4,-27.98263015751822,-29.688220276598976,-26.308091372432827
3.5,-28.81463896493322,-30.57200303577399,-27.089424503675144
3.6,-29.647394658790958,-31.45666258177557,-27.871388914477905
3.7,-30.480914281803457,-32.34221857572588,-28.653999287850787
3.9,-32.150312353113314,-34.11609730004216,-30.221215682936243
4,-32.986223791105765,-35.00445816366497,-31.0058501200068
4.1,-33.822965165873725,-35.89379178865878,-31.79118736643131
4.2,-34.660552509141354,-36.78411678794705,-32.57724120279846
4.32,-35.66679634463345,-37.85384141533062,-33.521470882828666
4.45,-36.758325844856806,-39.01438759271438,-34.54559996140581
4.58,-37.851378014397845,-40.176717889036496,-35.57101967566279
4.75,-39.283108046070005,-41.699447133539216,-36.91394868383222
4.88,-40.379803743645844,-42.866048150771384,-37.94245686308692
5,-41.393588548158675,-43.94461177806421,-38.89307814772124
5.15,-42.66281924151236,-45.29516344339677,-40.08304892378769
5.3,-43.934320887706534,-46.64838307484389,-41.27494274866578
5.5,-45.63328109929408,-48.45694014921045,-42.8672014076656
5.65,-46.91029018937894,-49.816644549815585,-44.06375262048915
5.8,-48.18975169282166,-51.179244863923046,-45.26237382564036
6,-49.89961483043765,-53.000678859335544,-46.86383395866614
6.15,-51.185025579233645,-54.3703312754864,-48.06746325647808
6.3,-52.47308860485245,-55.74314189916653,-49.27331791258474
6.45,-53.763869380538786,-57.119198988534464,-50.481447431825984
6.6,-55.05743660927852,-58.49859622881645,-51.691903105558865
6.75,-56.35386263493083,-59.88143333385764,-52.904738284215725
6.88,-57.47980325400695,-61.08275665497396,-53.95782984249011
7,-58.52113512451956,-62.19409815416419,-54.9315704901278
7.15,-59.825570628870295,-63.586648323509536,-56.151030603171805
7.32,-61.30775873475494,-65.1695541814101,-57.53622898649753
7.5,-62.88171660526963,-66.85120852768797,-59.00665492921819
7.65,-64.19707410399702,-68.25719681298068,-60.23504004587973
7.8,-65.51593637634853,-69.66754601328182,-61.46626105653784
8,-67.28007633351399,-71.55509362380609,-63.11244112712717
8.2,-69.05095954982426,-73.45114116644518,-64.76401323713287
8.4,-70.82891525805266,-75.3561707088692,-66.42120066998692
8.6,-72.61430229233443,-77.27070872020093,-68.084245673997
8.8,-74.40751135660551,-79.19532906024631,-69.7534110959478
9,-76.20896729308559,-81.13065590469166,-71.42898203735977
9.2,-78.01913133484717,-83.07736657248196,-73.11126752572356
9.4,-79.83850332430164,-85.03619421610628,-74.80060219213108
9.6,-81.66762387680963,-87.00793032895137,-76.49734794568467
9.8,-83.50707646550441,-88.99342701606875,-78.2018956338508
10,-85.35748939971677,-90.993598965449,-79.91466667649642
10.2,-87.21953766501545,-93.00942504602489,-81.63611465966854
10.4,-89.09394458772552,-95.04194944595388,-83.36672687320338
10.6,-90.9814832807561,-97.0922822501044,-85.10702577393334
10.8,-92.88297782055606,-99.16159933896856,-86.85757035354615
11,-94.79930409691706,-101.25114147239533,-88.61895738698504
11.2,-96.73139026807921,-103.36221240062947,-90.39182253360711
11.5,-99.66122813006464,-106.57218371497655,-93.07413036021936
11.8,-102.63226934826669,-109.83850669789113,-95.78624431674619
12,-104.63770888473177,-112.04985350291093,-97.61218362221814
12.2,-106.66431056709446,-114.29003372515663,-99.45338637031938
12.5,-109.74656613829912,-117.70778467880909,-102.24574329595866
12.8,-112.88344099962626,-121.199195759362,-105.07756035283053
13,-115.00719672219628,-123.57027620169792,-106.98898978754448
13.2,-117.15849124021854,-125.97784354197503,-108.92044847635134
13.5,-120.43994230453507,-129.6605656520999,-111.85749480619909
13.8,-123.79067109090363,-133.4324900067877,-114.84560838373626
14,-126.06503992792607,-135.99826510670985,-116.86788005399988
14.2,-128.37319510327976,-138.60575216044197,-118.91559048014969
14.5,-131.90103405416545,-142.59586814233816,-122.03722967469862
14.8,-135.5101907917315,-146.6802433127196,-125.2221171887272
15,-137.9625520606983,-149.45444152854705,-127.3821779609871
15.5,-144.25742693153808,-156.5589807184809,-132.91759431734013
16,-150.7833200193312,-163.87439580896861,-138.65481140025315
16.5,-157.52426282859682,-171.3435202413466,-144.5994059225056
17,-164.44785486043887,-178.88856382611195,-150.7486597589805
17.5,-171.5040924507806,-186.41674951233216,-157.08900318007323
18,-178.62675705755248,-193.82951496386093,-163.59394149881493
18.5,-185.7377955132915,-201.03321673184703,-170.22311284109182
19,-192.75423240595765,-207.94860624622075,-176.92310239733885
19.5,-199.59622774353932,-214.51689893884713,-183.63035125528998
20,-206.19443345501296,-220.70166021704955,-190.27596077808712
20.5,-212.49508822428888,-226.48713425040282,-196.79158860520005
21,-218.46214654725722,-231.87440222840527,-203.11524435956682
21.5,-224.0766825190966,-236.87678770725935,-209.1958306556823
22,-229.33441867868171,-241.51552380821525,-214.99571709358204
22.5,-234.24237680457108,-245.81620408298173,-220.4912471250338
23,-238.8154591133298,-249.806156964377,-225.67158180266603
23.5,-243.07345377049623,-253.51266340965466,-230.53652513709588
24,-247.03867242558303,-256.96184739932755,-235.0939622135158
24.5,-250.73423386134615,-260.1780577464627,-239.35737860651247
25,-254.1829069414843,-263.1835850678793,-243.3437301325693
25.5,-257.4063913082093,-265.9985939359001,-247.07176582527921
26,-260.4249170372122,-268.641184470845,-250.56079837027818
27,-265.9197220478771,-273.4720202202748,-256.89716515959753
27.5,-268.42814432916475,-275.68748541460053,-259.7797953122919
28,-270.7960432685788,-277.78532327312143,-262.4935492795221
28.5,-273.0357164613355,-279.77568559793036,-265.05289667056456
29,-275.1581789668574,-281.66762247972497,-267.47100172055747
29.5,-277.1732947269459,-283.46921570627154,-269.7597879704061
30,-279.0899011754438,-285.18769687905854,-271.93002520691914
30.5,-280.91592417409726,-286.8295511645519,-273.99142616712885
31,-282.65848211366057,-288.40060796007117,-275.95274503734106
31.5,-284.3239790511202,-289.90611987493526,-277.82187290100603
32,-285.91818734639236,-291.35083141447643,-279.6059273907737
33,-288.91309761662853,-294.07464119669106,-282.94390681266674
34,-291.6793156225212,-296.6019125212679,-286.01109940901574
35,-294.2466677956979,-298.95748634226953,-288.8440456604767
36,-296.64001109570006,-301.1622068339334,-291.47302811231924
37,-298.880237753222,-303.23371572465396,-293.9233375076356
39,-302.96956898667946,-307.0351963951768,-298.36984807348387
40,-304.8467947864326,-308.7893121350023,-300.3995234051928
41,-306.62799056355834,-310.4591762960587,-302.3185529423612
42,-308.32297253043754,-312.05335014531136,-304.1384252060131
43.2,-310.2551946248271,-313.87701649840284,-306.20538997352725
44.5,-312.2372646774856,-315.7551139317842,-308.31699390664545
45.8,-314.11752243050665,-317.5440309440915,-310.3117193203865
47.5,-316.4428965308413,-319.76688417367876,-312.7668439368767
48.8,-318.13239775500716,-321.3896021695281,-314.54205034919875
50,-319.63238482108244,-322.83605953158184,-316.1118171506295
51.5,-321.436731118257,-324.5835886753606,-317.9919076459985
53,-323.1726505595407,-326.2730729102635,-319.7918975459928
55,-325.3971055849189,-328.45050479782066,-322.08525427475627
56.5,-327.0086273730188,-330.0371638061943,-323.7370502665367
58,-328.5796062464565,-331.59166849017055,-325.3392208625779
60,-330.6223996804707,-333.6248878970172,-327.41033656542675
61.5,-332.12317455803435,-335.1273756150035,-328.9229305884993
63,-333.6029671089835,-336.6162251512054,-330.4068348876479
64.5,-335.06657885574094,-338.0960338275487,-331.86712211705276
66,-336.51843420785724,-339.57105606683706,-333.3084419107709
67.5,-337.96262814886194,-341.04524383984125,-334.73507681167774
68.8,-339.2110135688825,-342.325051017891,-335.96268522851614
70,-340.36281025129006,-343.5102604833522,-337.0908015555339
71.5,-341.80449015795057,-344.99957686583406,-338.4968979476552
73.2,-343.44472602365227,-346.70157212166527,-340.0888924796747
75,-345.19338072953474,-348.5244674688158,-341.77745143349216
76.5,-346.6633467548441,-350.0631251683332,-343.1903639708536
78,-348.1476585536035,-351.62220694114603,-344.6113807623436
80,-350.1531983226091,-353.7366550904106,-346.52299048925084
82,-352.19378180996387,-355.8963133047141,-348.4589930881215
84,-354.2741854231689,-358.10546574100545,-350.4244903042548
86,-356.3986755877255,-360.36776447249207,-352.4241521681117
88,-358.5709849302979,-362.68618361572106,-354.4622144166861
90,-360.79427787374885,-365.0629650850517,-356.5424649365794
92,-363.0711075766691,-367.4995593786108,-358.66822040072475
94,-365.40336657674317,-369.9965655201559,-360.8422944096915
96,-367.7922340310969,-372.5536750115545,-363.06695870443474
98,-370.23812303991764,-375.16962527861233,-365.3438993754238
100,-372.7406321243357,-377.8421684833906,-367.6741704295519
102,-375.29850541754195,-380.5680615833258,-370.05814755495214
104,-377.90960641492285,-383.34308300759903,-372.4954853937548
106,-380.57091010415405,-386.1620802016435,-374.9850820277896
108,-383.2785178599161,-389.019050541799,-377.52505462409874
110,-386.02769857255413,-391.9072558234589,-380.11273019285665
112,-388.8129580730576,-394.81936786734974,-382.74465510363785
115,-393.0448699239186,-399.21534746217515,-386.76612397011405
118,-397.3210608498353,-403.6207339855951,-390.8605022077927
120,-400.18438912080495,-406.5497123394116,-393.6208675490719
122,-403.04913971338937,-409.4635461419298,-396.3984248747495
125,-407.3331102170212,-413.7908288286096,-400.58237014627696
128,-411.5808086364875,-418.0478390409687,-404.76716020943775
130,-414.3820959544444,-420.83838512523175,-407.54646391515
132,-417.15262747255895,-423.5862994232382,-410.31002007995085
135,-421.2408177559625,-427.621823752627,-414.41334362904615
138,-425.237103143005,-431.5479875243298,-418.45124183523103
140,-427.845835899997,-434.1030382998651,-421.0998133434477
142,-430.4081890465125,-436.6079935345284,-423.70977431072924
145,-434.1628097711584,-440.27267245062836,-427.54683385676054
148,-437.810267917259,-443.8293292912834,-431.285364242821
150,-440.18315384849797,-446.1429705678301,-433.72142468761507
155,-445.9178001974246,-451.73991557447727,-439.61396559503174
160,-451.3903336547242,-457.0963479678531,-445.23290758000064
165,-456.63092378391275,-462.2467273022852,-450.59880005729445
170,-461.6716354488046,-467.2235378664032,-455.73888607534496
175,-466.5431471977753,-472.0550515872606,-460.68282391079487
180,-471.27265186252384,-476.76410771895723,-465.45961273060806
185,-475.88265541945424,-481.3676218058775,-470.0955598585371
190,-480.3904263097737,-485.87661522273913,-474.61305650138286
195,-484.807911277351,-490.2966231321452,-479.02994671188407
200,-489.14199169545515,-494.62838096897315,-483.3593238942963
205,-493.39499403892717,-498.8687090460023,-487.6096392684049
210,-497.5653888258377,-503.01151903748644,-491.7850443590037
215,-501.6486186450179,-507.0488641047335,-495.88591190530826
220,-505.63799450000687,-510.97195440515844,-499.90948881775876
225,-509.5255972892211,-514.7720668790744,-503.8506354382412
230,-513.3031229020061,-518.4412939297001,-507.70260249094315
235,-516.9626176944521,-521.9730977910955,-511.45779531060776
240,-520.4970657843797,-525.3626617566568,-515.1084773381514
245,-523.9008082253728,-528.6070514151406,-518.6473726669667
250,-527.1697931823355,-531.705215192075,-522.0681398546643
255,-530.3016724452455,-534.6578623405876,-525.3657041368066
260,-533.2957708261102,-537.467258451359,-528.5364499142283
270,-538.8754727594917,-542.6716243959113,-534.4906170464989
275,-541.4666763223564,-545.0765989808618,-537.274213985938
280,-543.9308458344981,-547.3578353437015,-539.9310653107291
285,-546.2729380010918,-549.5216057778354,-542.4641771078323
290,-548.4983868410866,-551.5743441942948,-544.8773743574379
295,-550.6129245379643,-553.5225050607824,-547.1751066352682
300,-552.622430474222,-555.3724532098953,-549.3622693738535
305,-554.532808290678,-557.130380957695,-551.4440462319951
310,-556.3498890531577,-558.802248485303,-553.425774972086
315,-558.0793576305349,-560.3937434295866,-555.3128369730082
320,-559.726698977714,-561.9102559119142,-557.1105690102809
330,-562.7957307984337,-564.7383384199007,-560.4587755079739
340,-565.5957684705081,-567.3233903203059,-563.510018153397
350,-568.1611882226874,-569.697493470291,-566.3004165265368
360,-570.52205315415,-571.8883096359189,-568.8622158449124
370,-572.7044286109258,-573.919569175316,-571.2238056042946
390,-576.6204824134799,-577.5937029389415,-575.4421480485724
400,-578.3900940620488,-579.2689814969772,-577.3389623325891
410,-580.0538869084774,-580.8483499679442,-579.0987293310938
420,-581.624113853087,-582.3428905614451,-580.7549212056815
432,-583.3996210105563,-584.0427831833084,-582.6222298604728
