Frequency,Nominal,Min,Max
1.48,-100.72392394695446,-101.70883742344223,-99.71965046992776
1.5,-100.853031767747,-101.8496474351046,-99.83674842751535
1.55,-101.17318457924742,-102.19880785787352,-100.12712058922779
1.6,-101.48953265982247,-102.54380626216889,-100.41404031512462
1.65,-101.80199554623772,-102.8845586472126,-100.697431365376
1.7,-102.11049594664232,-103.22098470858201,-100.97722018851266
1.75,-102.41495972986165,-103.55300781573948,-101.25333591967045
1.8,-102.7153159088076,-103.88055498255119,-101.52571037400448
1.85,-103.01149661827272,-104.20355683117316,-101.7942780354578
1.9,-103.30343708739663,-104.52194754968312,-102.05897604108968
1.95,-103.59107560709188,-104.8356648438617,-102.31974416116871
2,-103.87435349272934,-105.14464988351362,-102.57652477524556
2.05,-104.15321504238158,-105.44884724373259,-102.82926284442628
2.1,-104.42760749093169,-105.74820484151189,-103.07790588006843
2.15,-104.69748096034813,-106.04267386809805,-103.32240390912784
2.2,-104.96278840643755,-106.33220871748287,-103.56270943638336
2.25,-105.22348556236906,-106.61676691142222,-103.79877740376644
2.3,-105.47953087927606,-106.89630902136432,-104.03056514702534
2.35,-105.73088546422552,-107.17079858765727,-104.25803234994905
2.4,-105.97751301584512,-107.44020203639793,-104.48114099637138
2.45,-106.21937975788781,-107.70448859427404,-104.69985532017803
2.5,-106.45645437100801,-107.96363020173268,-104.91414175353039
2.55,-106.68870792301425,-108.21760142480207,-105.12396887351518
2.6,-106.91611379785338,-108.4663793658747,-105.32930734742743
2.7,-107.35628719948828,-108.94827595318549,-105.72641114094053
2.75,-107.56901242280485,-109.18136067431507,-105.91812773846418
2.8,-107.77680521486475,-109.40918408202417,-106.10525812982287
2.85,-107.97964944726404,-109.63173460567144,-106.28778257817756
2.9,-108.17753086800519,-109.84900266928248,-106.46568309047
2.95,-108.37043702787155,-110.06098060244331,-106.63894335828266
3,-108.55835720719168,-110.26766255208223,-106.8075486987129
3.05,-108.74128234314936,-110.46904439530434,-106.97148599539935
3.1,-108.91920495778537,-110.6651236534409,-107.1307436398302
3.15,-109.09211908682465,-110.85589940745376,-107.28531147305421
3.2,-109.2600202094534,-111.04137221482259,-107.43518072790859
3.3,-109.58077215573759,-111.39641811477456,-107.72079505061359
3.4,-109.8814509011718,-111.73029228935764,-107.98754215338684
3.5,-110.16206534857425,-112.04304426684376,-108.23539627511774
3.6,-110.42264117674497,-112.33473982621483,-108.46434864545353
3.7,-110.66321891659385,-112.60545878635615,-108.67440585215184
3.9,-111.0846057078431,-113.084344068547,-109.03792866333785
4,-111.26555425338651,-113.29272223779459,-109.19147064586468
4.1,-111.42678061324165,-113.48054404187705,-109.32626753424341
4.2,-111.56837449523788,-113.64793112559835,-109.44238106342576
4.32,-111.71250680421299,-113.82199839062595,-109.55715294225712
4.45,-111.83710327422338,-113.97782476868122,-109.65139358761043
4.58,-111.92911391826313,-114.0998710655488,-109.71451128774908
4.75,-112.00065809710694,-114.20897031339247,-109.75041079153671
4.88,-112.01837031402344,-114.25413574736905,-109.74245636697903
5,-112.00648747138635,-114.26665286334277,-109.70807836828217
5.15,-111.95381003781615,-114.24323594421952,-109.62887248487503
5.3,-111.85943954022638,-114.17677487299964,-109.50972085123976
5.5,-111.6693599952394,-114.02183187337295,-109.28930192603221
5.65,-111.47905145483517,-113.85632018034403,-109.07826992963734
5.8,-111.24818166725228,-113.64889993263309,-108.82843535380574
6,-110.8778127797036,-113.30765425334505,-108.43556619389032
6.15,-110.553534043596,-113.00355810804216,-108.0965550503949
6.3,-110.18973767390666,-112.65846180244436,-107.71992127674882
6.45,-109.7867288597706,-112.27260377157522,-107.30603343742021
6.6,-109.34481453464912,-111.84621262994291,-106.85527127842339
6.75,-108.86430727563906,-111.3795114867028,-106.36802894696596
6.88,-108.4168992616663,-110.9426027436012,-105.91656187961303
7,-107.97858257845007,-110.51270483408801,-105.47602057250522
7.15,-107.3967808185879,-109.93961408818834,-104.89357422850155
7.32,-106.69230759677772,-109.24243021671835,-104.1913655913391
7.5,-105.89480179046006,-108.44944337002781,-103.31093146432006
7.65,-105.1902232958888,-107.82244150238822,-102.52289584068554
7.8,-104.44981751393962,-107.16858474174096,-101.69909848072874
8,-103.4078324528168,-106.24245951974993,-100.54643889893049
8.2,-102.30459117513891,-105.25514161998822,-99.31704269146296
8.4,-101.1417564727346,-104.2077315132807,-97.93612683581796
8.6,-99.92122116105587,-103.10150054169978,-96.49708605037499
8.8,-98.64513000217838,-101.93791614916306,-95.0033302917109
9,-97.31589804464,-100.7535747233684,-93.45863986896347
9.2,-95.93622432429375,-99.58871774796741,-91.86716126506572
9.4,-94.50909989734551,-98.3752177651329,-90.23339194568094
9.6,-93.03780926602388,-97.11514283282263,-88.56215362786801
9.8,-91.52592441616939,-95.81078566403605,-86.85855401682426
10,-89.97729091642722,-94.46466873974626,-85.12793762219607
10.2,-88.39600582586279,-93.07954473624228,-83.37582689032246
10.4,-86.78638750819373,-91.65839177066218,-81.60785548151978
10.6,-85.15293783630632,-90.20440311442462,-79.82969602578248
10.8,-83.50029766365996,-88.7209712087215,-78.04698505479027
11,-81.83319680883288,-87.211666032273,-76.26524799415199
11.2,-80.15640011418616,-85.68020810824194,-74.4898270871399
11.5,-77.63338277963028,-83.34990686403437,-71.84959564412209
11.8,-75.11483160981561,-80.99168543538511,-69.25079668406627
12,-73.44564666427891,-79.4106403045531,-67.54824924904607
12.2,-71.78918482539154,-77.82706837356481,-65.873962722202
12.5,-69.33669748843826,-75.45536283987393,-63.4223383253363
12.8,-66.93315269546078,-73.09905760812586,-61.050172956783705
13,-65.3630058957908,-71.54250512164559,-59.51624808687025
13.2,-63.82164428494036,-70.00113660101609,-58.0221015935632
13.5,-61.568264255559875,-67.7238942194056,-55.857737026467454
13.8,-59.39042936057044,-65.49614492890373,-53.78743766369242
14,-57.98269085371979,-64.04219912307933,-52.459890950823734
14.2,-56.611356768304695,-62.61543547305179,-51.17436179294013
14.5,-54.62388956957329,-60.529650176852535,-49.32405691237577
14.8,-52.72069343605824,-58.51277280027685,-47.56558086175579
15,-51.498726157247056,-57.207998885046,-46.44300266719527
15.5,-48.60565577447052,-54.089444741181495,-43.80379832809881
16,-45.9370562012424,-51.178152467282466,-41.39017354244007
16.5,-43.48129108552485,-48.47200075592064,-39.18429312575277
17,-41.22438009974397,-45.96429136811608,-37.16800355007236
17.5,-39.15125954170664,-43.64525387621197,-35.32364905108708
18,-37.24667674313273,-41.503273208740325,-33.634563348815426
18.5,-35.49578621314066,-39.5258312793039,-32.0853307605398
19,-33.88451829737399,-37.700190782412214,-30.661891488822995
19.5,-32.39978305920604,-36.01386525416854,-29.351546845954406
20,-31.02956007341015,-34.45492227954666,-28.142904010109955
20.5,-29.76291269912988,-33.012162443507776,-27.025787337293124
21,-28.589954895740668,-31.675209438398294,-25.991134016521798
21.5,-27.50179027903446,-30.434539087539594,-25.030885337311567
22,-26.49043680209825,-29.281468132726506,-24.13788038099659
22.5,-25.548745861125692,-28.20811791807673,-23.305755981388145
23,-24.670321395234424,-27.2073636343823,-22.52885487873544
23.5,-23.849442328402507,-26.272776428956554,-21.802142782726772
24,-23.08099021058523,-25.398563234352377,-21.121134328995606
24.5,-22.360382938507684,-24.579507422744722,-20.48182749501499
25,-21.68351481547071,-23.810912174805043,-19.880645823486972
25.5,-21.046702829519308,-23.088547620071935,-19.31438770940576
26,-20.446638810131844,-22.408602250369167,-18.780181991411702
27,-19.345146608332588,-21.162554134519183,-17.797867200891087
27.5,-18.838618638738836,-20.59054404491127,-17.345342367647735
28,-18.358576840817026,-20.04907079200243,-16.91598281792117
28.5,-17.90304199703823,-19.535834937285497,-16.508076143864166
29,-17.470219332552016,-19.04875001066315,-16.120069461653202
29.5,-17.05847860874574,-18.58592006447904,-15.750551992444109
30,-16.66633657873329,-18.145619756210564,-15.398239769380728
30.5,-16.29244151176803,-17.726276678797202,-15.061962191683406
31,-15.935559528881885,-17.326455682930643,-14.740650184562174
31.5,-15.594562523952264,-16.944844961113127,-14.433325756505338
32,-15.2684174728656,-16.580243687805304,-14.13909277390299
33,-14.656970762374458,-15.897756386885305,-13.586677846217064
34,-14.094522418233254,-15.271218493511856,-13.07758554719824
35,-13.575390406946738,-14.694041428041382,-12.606870126817286
36,-13.094726761141871,-14.160611875942626,-12.170304668156092
37,-12.648373043246147,-13.666122485951947,-11.764257092758026
39,-11.84473438480704,-12.777972991015828,-11.031582547360191
40,-11.481640982234245,-12.377626154959028,-10.699859870796086
41,-11.141101661800928,-12.002682963653914,-10.388344372359708
42,-10.821043197515355,-11.650767363121568,-10.095209031559053
43.2,-10.461451055334532,-11.255940283103795,-9.76545125938711
44.5,-10.09902586320009,-10.858603888124055,-9.432648332829705
45.8,-9.761878045225368,-10.489525242688295,-9.122651064499609
47.5,-9.35483829174905,-10.044639217786578,-8.747866550193958
48.8,-9.066638953553335,-9.730110168507416,-8.482157648437287
50,-8.816524188240725,-9.457459045182686,-8.25132749982034
51.5,-8.523335681410625,-9.138224237547517,-7.9804682252570345
53,-8.249694453348829,-8.840633930450753,-7.727398697523629
55,-7.911937012738989,-8.47379425434826,-7.414676385663895
56.5,-7.6768035641022765,-8.218725236290831,-7.196739844212855
58,-7.455669623930426,-7.97907360157492,-6.991606510524431
60,-7.180474282927176,-7.681143786896444,-6.736091689002571
61.5,-6.987419023812966,-7.472343495145557,-6.556690484311851
63,-6.804747460612959,-7.274927013175136,-6.386823963002912
64.5,-6.631624612177488,-7.087966357878922,-6.22573477323115
66,-6.467303812320493,-6.910632954473303,-6.072744736428653
67.5,-6.311115260263069,-6.742184602256921,-5.927244691064934
68.8,-6.181862565461661,-6.602865858875781,-5.806777651059403
70,-6.067262732549063,-6.479400788637966,-5.6999227525483365
71.5,-5.929970615580922,-6.3315611838445385,-5.571854286088021
73.2,-5.781834990695368,-6.1721336170137855,-5.433604333509551
75,-5.632982951542764,-6.012026614837486,-5.294617025066086
76.5,-5.51476566861204,-5.8849353803684235,-5.184185680948907
78,-5.401482939753209,-5.763202229630297,-5.0783239833337115
80,-5.257584800991151,-5.60864398532657,-4.943796756100061
82,-5.1212496685119735,-5.462284553017462,-4.816283208615597
84,-4.991884810546324,-5.323474913377643,-4.695238489016525
86,-4.868958621254246,-5.1916336583627105,-4.580173426603101
88,-4.751992873797453,-5.066238338583801,-4.470647537157794
90,-4.640556128736681,-4.946818112804513,-4.366263062726796
92,-4.534258100996886,-4.832947475967521,-4.266659871044134
94,-4.432744826085031,-4.724240885022973,-4.171511072812805
96,-4.335694495855107,-4.620348135670658,-4.0805192412253986
98,-4.242813857671402,-4.520950370002231,-3.993413138958728
100,-4.153835089667336,-4.425756616495804,-3.909944874586189
102,-4.068513079957697,-4.334500781054139,-3.829887423813543
104,-3.986623049920307,-4.246939021695145,-3.753032461844853
106,-3.907958471624195,-4.162847450794484,-3.679188462056182
108,-3.832329237613489,-4.082020117984748,-3.608179023407263
110,-3.759560047925556,-4.004267234353683,-3.5398413949771776
112,-3.6894889847154744,-3.929413604783653,-3.4740251709226544
115,-3.5891167278877725,-3.8222182163298926,-3.3797267322772715
118,-3.4940205576492587,-3.720687131448313,-3.2903626237812724
120,-3.433349105264018,-3.6559250221404445,-3.23333694318279
122,-3.3747273008876113,-3.5933615996014256,-3.178229480094955
125,-3.290412570210936,-3.5033961941968332,-3.0989552617158704
128,-3.2101561145833726,-3.417781063042371,-3.0234814164676003
130,-3.158761766833151,-3.362965281694186,-2.9751419891928546
132,-3.1089621978723514,-3.309857923199233,-2.9282968231855238
135,-3.0370919101930345,-3.233226716700686,-2.8606804544785414
138,-2.968412275936487,-3.1600115684113774,-2.7960551125881397
140,-2.924293456657854,-3.1129863705920586,-2.754535204585611
142,-2.88144063948638,-3.0673159014325946,-2.7142026255772134
145,-2.8194166990778786,-3.001222999290533,-2.6558193020820102
148,-2.759948063830739,-2.9378632022753597,-2.599833459819184
150,-2.7216438315524774,-2.897057868186906,-2.5637684879232534
155,-2.630266700981472,-2.799730593685934,-2.4777205791499743
160,-2.5446689342573063,-2.7085797604427695,-2.397098900200463
165,-2.4643114654130787,-2.62302724393921,-2.3213397149404424
170,-2.3887207287174057,-2.542565434508216,-2.2499904554464205
175,-2.317478959905806,-2.466828468660544,-2.1827477083397486
180,-2.250216177630071,-2.3953819419980107,-2.1192617546008967
185,-2.186603513955448,-2.3278117465418986,-2.0592217894712044
190,-2.126347635495534,-2.2638066426709704,-2.002350634138497
195,-2.069186051990457,-2.203088077428435,-1.94840028998523
200,-2.0148831513917265,-2.1454059882286645,-1.897148182346853
205,-1.9632268331167417,-2.090535238731973,-1.8483939717837585
210,-1.9140256364734478,-2.0382725781990922,-1.8019568349959745
215,-1.867106281088983,-1.9884340365324085,-1.7576731363854325
220,-1.8223115518045216,-1.9408526836840572,-1.715394426138128
225,-1.7794984728921277,-1.8953766951791546,-1.674985712483589
230,-1.738536726336121,-1.851867675931875,-1.6363239651869423
235,-1.6993072768539963,-1.8101992029024832,-1.5992968148663134
240,-1.6617011727304691,-1.7702555538979279,-1.5638014188061597
245,-1.6256184967262783,-1.7319305952967676,-1.5297434688635996
250,-1.5909674455506615,-1.6951268059441214,-1.4970363210776372
255,-1.5576635198466435,-1.6597544181184565,-1.465600229875112
260,-1.525628809483691,-1.6257306594789365,-1.4353616724667189
270,-1.4650846183997988,-1.5614289690462255,-1.3782106639246994
275,-1.4364469216801865,-1.5310148026528327,-1.3511772324193592
280,-1.4088210657219622,-1.5016757961156502,-1.3250984833002633
285,-1.3821539021836764,-1.473355471189877,-1.2999242730505347
290,-1.3563959848991658,-1.4460012818137753,-1.2756079528008797
295,-1.3315012516332676,-1.419564276324936,-1.2521060677140774
300,-1.307426738148961,-1.3939987939468292,-1.2293780869136894
