Frequency,Nominal,Min,Max
1.48,3.5300083237604636e-7,3.5123557747061194e-7,3.5489339917072306e-7
1.5,3.53385276038044e-7,3.515761456260112e-7,3.5532509218584245e-7
1.55,3.5436845590972596e-7,3.5244716401943903e-7,3.5642904679117594e-7
1.6,3.5538311354595976e-7,3.533461379065788e-7,3.5756825493815565e-7
1.65,3.56429183247037e-7,3.54273014411145e-7,3.5874263600222555e-7
1.7,3.5750659830805394e-7,3.552277397586383e-7,3.599521082667891e-7
1.75,3.5861529109411445e-7,3.562102593329267e-7,3.611965890206554e-7
1.8,3.597551931143718e-7,3.572205177323237e-7,3.624759946532304e-7
1.85,3.609262350946932e-7,3.5825845882501845e-7,3.6379024074714026e-7
1.9,3.6212834704873405e-7,3.5932402580371437e-7,3.651392421679825e-7
1.95,3.6336145834721605e-7,3.604171612393309e-7,3.6652291315091285e-7
2,3.6462549778520534e-7,3.615378071336334e-7,3.67941167383779e-7
2.05,3.659203936471945e-7,3.626859049706535e-7,3.693939180865277e-7
2.1,3.672460737697991e-7,3.638613957667659e-7,3.7088107808661895e-7
2.15,3.6860246560188187e-7,3.650642201192952e-7,3.72402559890192e-7
2.2,3.699894962619276e-7,3.662943182535235e-7,3.7395827574873767e-7
2.25,3.7140709259249695e-7,3.6755163006798e-7,3.7554813772104274e-7
2.3,3.728551812115932e-7,3.6883609517789056e-7,3.771720577301826e-7
2.35,3.743336885607817e-7,3.701476529566765e-7,3.7882994761534623e-7
2.4,3.7584254094991183e-7,3.7148624257538824e-7,3.805217191782935e-7
2.45,3.773816645982926e-7,3.7285180303997014e-7,3.8224728422424723e-7
2.5,3.789509856721854e-7,3.742442732262516e-7,3.840065545970398e-7
2.55,3.8055043031847806e-7,3.756635919125679e-7,3.857994422083387e-7
2.6,3.821799246944149e-7,3.7710969780991335e-7,3.876258590607871e-7
2.7,3.8552876746579095e-7,3.8008202590790496e-7,3.913789290496008e-7
2.75,3.8724796843747845e-7,3.8160812542890907e-7,3.933054067661649e-7
2.8,3.889969243213088e-7,3.831607668433058e-7,3.952650628856001e-7
2.85,3.90775561626091e-7,3.84739888885247e-7,3.972578099891826e-7
2.9,3.9258380696019536e-7,3.8634543034586797e-7,3.992835607521291e-7
2.95,3.9442158703061896e-7,3.879773300838531e-7,4.013422279202633e-7
3,3.9628882863730234e-7,3.8963552703291524e-7,4.034337242795853e-7
3.05,3.9818545866261893e-7,3.9131996020612706e-7,4.055579626186435e-7
3.1,4.0011140405596247e-7,3.9303056869704614e-7,4.077148556836214e-7
3.15,4.020665918133637e-7,3.9476729167757956e-7,4.099043161260578e-7
3.2,4.040509489520734e-7,3.965300683925336e-7,4.1212625644311777e-7
3.3,4.081068793602844e-7,4.0013354031313956e-7,4.1666722550680584e-7
3.4,4.1227861055419065e-7,4.0384049945480217e-7,4.213370570187214e-7
3.5,4.165655556533277e-7,4.0765046105733937e-7,4.261350375537809e-7
3.6,4.2096712389055295e-7,4.1156293981992147e-7,4.310604428557578e-7
3.7,4.25482718534086e-7,4.155774488856159e-7,4.3611253407077716e-7
3.9,4.348535553641375e-7,4.2391059497556313e-7,4.465937196574871e-7
4,4.3970755062861324e-7,4.2822823805194274e-7,4.5202122225423014e-7
4.1,4.446730718070612e-7,4.3264591982647225e-7,4.575722160613818e-7
4.2,4.4974944875750656e-7,4.371631220746823e-7,4.632458146922845e-7
4.32,4.5598644854174885e-7,4.4271438319182754e-7,4.7021465186003703e-7
4.45,4.629207407169618e-7,4.488880068097871e-7,4.77959936335318e-7
4.58,4.70038013115366e-7,4.5522655201049486e-7,4.859064479988205e-7
4.75,4.796182461119818e-7,4.637620520446816e-7,4.965973302971511e-7
4.88,4.871505462343638e-7,4.7047599603423844e-7,5.049979104289504e-7
5,4.942599922821769e-7,4.768157174596232e-7,5.129224652703059e-7
5.15,5.033551829289606e-7,4.849303591641454e-7,5.23053503492663e-7
5.3,5.12678096028467e-7,4.932535308571523e-7,5.334292163672654e-7
5.5,5.254549653375886e-7,5.046702153516502e-7,5.476321424938158e-7
5.65,5.352906541342877e-7,5.134676742323703e-7,5.585506128101041e-7
5.8,5.453367430057352e-7,5.224623008655402e-7,5.696873845108288e-7
6,5.590473118806457e-7,5.347544297434493e-7,5.848583134930211e-7
6.15,5.695573441303479e-7,5.441917600088043e-7,5.964629576569285e-7
6.3,5.802526512343406e-7,5.538101532043941e-7,6.082472541387333e-7
6.45,5.911237531151718e-7,5.636035664646492e-7,6.201966360136272e-7
6.6,6.021601331602227e-7,5.735652982892372e-7,6.322949855325435e-7
6.75,6.133501603673216e-7,5.83687930640027e-7,6.445245425762273e-7
6.88,6.231625898133375e-7,5.92584717832737e-7,6.552146099933729e-7
7,6.323062528848321e-7,6.008939135869433e-7,6.651449794858264e-7
7.15,6.438398703674253e-7,6.114032714619618e-7,6.776242715429915e-7
7.32,6.570316131186467e-7,6.234663554932024e-7,6.918275685286166e-7
7.5,6.711108016498495e-7,6.363975100990859e-7,7.068947599593093e-7
7.65,6.829072000943488e-7,6.472823906508629e-7,7.194382239008666e-7
7.8,6.947390223309399e-7,6.582514216537265e-7,7.319377746322972e-7
8,7.105304643405335e-7,6.729814059199104e-7,7.484794410330031e-7
8.2,7.262865257439144e-7,6.877949648251385e-7,7.648044102413496e-7
8.4,7.419448551717623e-7,7.026493782128732e-7,7.81735342619814e-7
8.6,7.574389214576489e-7,7.174982307391846e-7,7.984166537925604e-7
8.8,7.726984872505272e-7,7.322914964901291e-7,8.147418816985203e-7
9,7.876502488374591e-7,7.45892575750201e-7,8.311794233907135e-7
9.2,8.022186456767039e-7,7.583965533980606e-7,8.481052815253368e-7
9.4,8.163268351906715e-7,7.70454950180608e-7,8.645816055005065e-7
9.6,8.298978190731041e-7,7.820072104977738e-7,8.805129877405691e-7
9.8,8.428556972299059e-7,7.929947326899096e-7,8.958034404188454e-7
10,8.551270152160389e-7,8.033618628845876e-7,9.10358106883005e-7
10.2,8.666421615409478e-7,8.130568855863531e-7,9.240851202060574e-7
10.4,8.773367634728905e-7,8.220329748329986e-7,9.368975442110033e-7
10.6,8.871530249373615e-7,8.302490688864285e-7,9.487153192451354e-7
10.8,8.960409485797367e-7,8.376706328861126e-7,9.594671263013939e-7
11,9.039593865615502e-7,8.442702777355309e-7,9.690920802803273e-7
11.2,9.108768713011716e-7,8.500282095498464e-7,9.775411672158707e-7
11.5,9.193327839069904e-7,8.570629531792588e-7,9.879349533083373e-7
11.8,9.254641609665962e-7,8.621718519255788e-7,9.955416609216432e-7
12,9.282707948855874e-7,8.645219754330548e-7,9.99064976220282e-7
12.2,9.300743699768552e-7,8.660477476480534e-7,0.0000010013700952735596
12.5,9.309640047645398e-7,8.668462272788066e-7,0.000001002615139565994
12.8,9.297924280173009e-7,8.659528560311221e-7,0.000001001343337533462
13,9.279446030735617e-7,8.644800870904312e-7,9.99192600888257e-7
13.2,9.25305159002861e-7,8.62354404402086e-7,9.960763785252396e-7
13.5,9.199863139481406e-7,8.580394381983474e-7,9.897485345370482e-7
13.8,9.132131355124281e-7,8.525114235145099e-7,9.816610374253527e-7
14,9.079891831945157e-7,8.482299551053843e-7,9.75418169135486e-7
14.2,9.022671688317345e-7,8.435254545985322e-7,9.685817082467725e-7
14.5,8.92874890638699e-7,8.357735572790627e-7,9.573720920972916e-7
14.8,8.826738033410632e-7,8.273158800442642e-7,9.452216196872094e-7
15,8.755081188414705e-7,8.213525351478009e-7,9.367046312273656e-7
15.5,8.566483648964142e-7,8.05574111687272e-7,9.143669665182794e-7
16,8.369286345018216e-7,7.889533441987729e-7,8.911395299511684e-7
16.5,8.168537953033672e-7,7.719098923675787e-7,8.676324082421893e-7
17,7.96811019981974e-7,7.547737817116897e-7,8.443021650801844e-7
17.5,7.770861597003403e-7,7.376761187693574e-7,8.217968695224396e-7
18,7.578818037181377e-7,7.18915670897091e-7,8.012798098415037e-7
18.5,7.393345022539966e-7,7.010476894230043e-7,7.812975127387154e-7
19,7.215299025855185e-7,6.840899437562668e-7,7.623219169845283e-7
19.5,7.045153702232107e-7,6.680365673759125e-7,7.446848328655909e-7
20,6.883101355906584e-7,6.528656625939179e-7,7.276870575784908e-7
20.5,6.72913235404496e-7,6.385449123713332e-7,7.113775315856538e-7
21,6.583096005680557e-7,6.250356548537982e-7,6.957804830239402e-7
21.5,6.44474644866553e-7,6.122957954553071e-7,6.809018948637875e-7
22,6.313776729299622e-7,6.002818530729954e-7,6.667345778197961e-7
22.5,6.189843761389595e-7,5.889503690856728e-7,6.532620855618093e-7
23,6.072586342942922e-7,5.782588522463185e-7,6.404616948929787e-7
23.5,5.961637949797253e-7,5.681663888153892e-7,6.283066457783105e-7
24,5.856635638014102e-7,5.586340136298808e-7,6.167678043134091e-7
24.5,5.757226072734058e-7,5.496249123551362e-7,6.058148811015449e-7
25,5.66306945323338e-7,5.411045061477009e-7,5.954173104105551e-7
25.5,5.573841911760381e-7,5.330404558643536e-7,5.855448726678741e-7
26,5.489236816733677e-7,5.254026125750785e-7,5.761681242517561e-7
27,5.332756239974171e-7,5.112953772119821e-7,5.587894118012104e-7
27.5,5.260355883928562e-7,5.047757869633252e-7,5.507345139914774e-7
28,5.191527217562764e-7,4.98581769967223e-7,5.43069586489029e-7
28.5,5.126049190716001e-7,4.926925759840088e-7,5.357716222853386e-7
29,5.063715853997179e-7,4.870889789417464e-7,5.288189890271952e-7
29.5,5.004335456314479e-7,4.817531632889565e-7,5.221913877481162e-7
30,4.947729535272856e-7,4.766686162792915e-7,5.158697990710715e-7
30.5,4.893732022685468e-7,4.718200268137689e-7,5.098364217445463e-7
31,4.842188379985618e-7,4.671931910913501e-7,5.040746070499272e-7
31.5,4.792954772918035e-7,4.6277492506320293e-7,4.985687916251245e-7
32,4.7458972909983214e-7,4.5855298351643684e-7,4.933044305068852e-7
33,4.6578203294571625e-7,4.5065334577983887e-7,4.83446592701517e-7
34,4.5770580319299054e-7,4.434124062046916e-7,4.744026750665209e-7
35,4.5028277353102325e-7,4.3675913213420245e-7,4.6608664086581193e-7
36,4.434446712196095e-7,4.3063170264038334e-7,4.5842316545885526e-7
37,4.3713178135904763e-7,4.249761438272761e-7,4.5134617617858125e-7
39,4.2587844776558356e-7,4.148972949337564e-7,4.3872622203758816e-7
40,4.208513060143333e-7,4.103958798351866e-7,4.330868652548981e-7
41,4.161743666062314e-7,4.062085962303167e-7,4.278394838493764e-7
42,4.118157581419316e-7,4.0230677824598495e-7,4.229485376579176e-7
43.2,4.069659426679906e-7,3.9796573935185893e-7,4.175056097151258e-7
44.5,4.0213342178333245e-7,3.936406924817618e-7,4.120813099321925e-7
45.8,3.9769278294602774e-7,3.896668072239056e-7,4.070962250906715e-7
47.5,3.924087912111488e-7,3.8493872424406194e-7,4.011636114554884e-7
48.8,3.88722968704366e-7,3.816409802922641e-7,3.970248746598424e-7
50,3.8556426089483654e-7,3.7881503554823894e-7,3.9347773633876854e-7
51.5,3.8191195099244065e-7,3.7554767833084016e-7,3.8937599072128235e-7
53,3.7855514529626585e-7,3.725448318307664e-7,3.856058525696509e-7
55,3.744854850057241e-7,3.689044432114692e-7,3.810348052698077e-7
56.5,3.7170316208315683e-7,3.6641565437192807e-7,3.779095640759137e-7
58,3.69126514870782e-7,3.641108449773997e-7,3.7501529013262937e-7
60,3.659765778806087e-7,3.612931761719084e-7,3.714770413855417e-7
61.5,3.6380584065329615e-7,3.593513416576834e-7,3.6903874136735614e-7
63,3.617825622628407e-7,3.575413245426274e-7,3.667661437159183e-7
64.5,3.598934092929889e-7,3.558511823059379e-7,3.6464429531391775e-7
66,3.581265145016539e-7,3.542702872177024e-7,3.626598852957677e-7
67.5,3.5647128753312346e-7,3.5278915643487045e-7,3.608010332435546e-7
68.8,3.5511973498033254e-7,3.515796281038521e-7,3.592833447713283e-7
70,3.5393543868859827e-7,3.5051966388854274e-7,3.5795359102721496e-7
71.5,3.5253427186099843e-7,3.492654310664936e-7,3.5638050292602e-7
73.2,3.5104432282237625e-7,3.479314921389711e-7,3.5470798648901836e-7
75,3.4957038593199257e-7,3.466116043454893e-7,3.530537490862713e-7
76.5,3.4841658548997547e-7,3.455781600431255e-7,3.517590625991582e-7
78,3.473250324731798e-7,3.4460024975840927e-7,3.50534465335911e-7
80,3.459585217351883e-7,3.433756571899279e-7,3.490017839573852e-7
82,3.4468466179032383e-7,3.4223368260276043e-7,3.475734762524154e-7
84,3.43494757066548e-7,3.4116655047298225e-7,3.4623977351848293e-7
86,3.4238109590088865e-7,3.401673661659953e-7,3.4499201095642403e-7
88,3.413368200809275e-7,3.3922999901830554e-7,3.4382248145482034e-7
90,3.40355814126766e-7,3.3834898312610417e-7,3.4272431148042423e-7
92,3.394326109715774e-7,3.37519432841025e-7,3.4169135533466587e-7
94,3.385623113223538e-7,3.367369705333783e-7,3.407181047337299e-7
96,3.3774051447927805e-7,3.359976646292772e-7,3.3979961122546464e-7
98,3.369632587900368e-7,3.3529797628532226e-7,3.3893141940154326e-7
100,3.3622697023560635e-7,3.3463471335199076e-7,3.3810950922158617e-7
102,3.3552841790296477e-7,3.340049905093103e-7,3.3733024605568014e-7
104,3.3486467531046356e-7,3.334061946471419e-7,3.365903372870549e-7
106,3.342330867231246e-7,3.3283595471635e-7,3.3588679450865847e-7
108,3.336312377355987e-7,3.322921154031999e-7,3.352169005046033e-7
110,3.330569295160462e-7,3.3177271408297716e-7,3.3457818033676504e-7
112,3.3250815619952887e-7,3.312759605943659e-7,3.3396837596355583e-7
115,3.3172890791169494e-7,3.305697558040538e-7,3.331034209643126e-7
118,3.309974799826103e-7,3.2990591326534315e-7,3.3229267974443433e-7
120,3.305339980520607e-7,3.294847182980549e-7,3.317795673598342e-7
122,3.3008829609241524e-7,3.2907925263433426e-7,3.3128663762113395e-7
125,3.294504956829162e-7,3.2849824143157814e-7,3.305821732197544e-7
128,3.288463946872992e-7,3.279469985510522e-7,3.2991601514888206e-7
130,3.2846077187213637e-7,3.2759460534231424e-7,3.29491375758896e-7
132,3.280878161885926e-7,3.272533830062538e-7,3.290811573551407e-7
135,3.275503933376004e-7,3.2676094409127217e-7,3.2849090716508165e-7
138,3.270372109892548e-7,3.2628984316074706e-7,3.2792830032152203e-7
140,3.267074565412555e-7,3.259866505506902e-7,3.275673460741732e-7
142,3.263868933507237e-7,3.2569153205631043e-7,3.272168930171432e-7
145,3.2592207819818016e-7,3.252629211825896e-7,3.267095447222085e-7
148,3.254749864856451e-7,3.248498443482896e-7,3.262224874935282e-7
150,3.251860015908537e-7,3.245824043615085e-7,3.25908186200123e-7
155,3.244922895623832e-7,3.2393892618005305e-7,3.2515543911455677e-7
160,3.238350830489153e-7,3.2332727482692077e-7,3.244446859171277e-7
165,3.232094096374778e-7,3.2274302966316207e-7,3.2377030747732794e-7
170,3.2261103064623657e-7,3.2218242471173213e-7,3.231275109757561e-7
175,3.220363181153997e-7,3.2164223886217083e-7,3.2251219144029906e-7
180,3.214821552030388e-7,3.2111970697607127e-7,3.2192081961285806e-7
185,3.2094585502923415e-7,3.206124474643744e-7,3.213503505742247e-7
190,3.204250941619469e-7,3.2011840293573573e-7,3.207981488467193e-7
195,3.1991785779913543e-7,3.1963579128497285e-7,3.2026192666184405e-7
200,3.19422394351693e-7,3.1916306517160004e-7,3.1973969281085275e-7
205,3.189371776263237e-7,3.1869887828036263e-7,3.1922971005208484e-7
210,3.184608751864441e-7,3.182420570942769e-7,3.1873045947502626e-7
215,3.179923217616221e-7,3.1779157717189665e-7,3.182406105499149e-7
220,3.175304968031864e-7,3.1734654312338393e-7,3.1775899584717505e-7
225,3.1707450546115354e-7,3.169061716384856e-7,3.172845896106566e-7
230,3.1662356239717104e-7,3.164697770441234e-7,3.1681648952568116e-7
235,3.1617697795852457e-7,3.1603675896782097e-7,3.1635390114705494e-7
240,3.157341463259583e-7,3.156065917614847e-7,3.158961245509383e-7
245,3.152945353181543e-7,3.151788154026144e-7,3.154425428533377e-7
250,3.1485767759197935e-7,3.1475302764024e-7,3.1499261230134625e-7
255,3.144231630230158e-7,3.143288771933951e-7,3.145458536943666e-7
260,3.1399063208767954e-7,3.1390605784276133e-7,3.1410184493398337e-7
270,3.1313030216598e-7,3.1306338262383687e-7,3.1322063595667715e-7
275,3.12701988789747e-7,3.1264263955230483e-7,3.1278282263947434e-7
280,3.122746219798132e-7,3.1221843419109636e-7,3.12346523643935e-7
285,3.1184802184547896e-7,3.1179481998056973e-7,3.1191151981287533e-7
290,3.114220335823212e-7,3.1136636114919823e-7,3.114825708836671e-7
295,3.109965248063717e-7,3.109374090243658e-7,3.110598100217389e-7
300,3.105713831898395e-7,3.105090523026531e-7,3.106372280597344e-7
