Frequency,Nominal,Min,Max
1.48,-6.552047560579794,-6.954235016883495,-6.157862108927905
1.5,-6.6423394391557675,-7.0502999005198905,-6.242532684952816
1.55,-6.868381866212015,-7.290835542742682,-6.454469046459801
1.6,-7.094883309446924,-7.53191935714024,-6.666786874127388
1.65,-7.321859134700447,-7.773569771367014,-6.879498887264409
1.7,-7.549324759842449,-8.015805282156656,-7.092617843841062
1.75,-7.777295656197696,-8.258644457168378,-7.306156541569824
1.8,-8.005787349948873,-8.502105936799255,-7.520127818972766
1.85,-8.234815423517087,-8.746208435960451,-7.734544556434689
1.9,-8.464395516918039,-8.990970745815353,-7.949419677241174
1.95,-8.694543329093099,-9.236411735477766,-8.164766148601078
2,-8.925274619213743,-9.482550353667822,-8.380596982652522
2.05,-9.156605207958062,-9.729405630323543,-8.596925237451524
2.1,-9.388550978757952,-9.9769966781657,-8.813764017942638
2.15,-9.621127879015487,-10.225342694213424,-9.031126476910542
2.2,-9.854351921287094,-10.474462961248319,-9.249025815911791
2.25,-10.088239184433725,-10.724376849224177,-9.467475286185673
2.3,-10.322805814735526,-10.97510381661978,-9.686488189543482
2.35,-10.55806802696935,-11.226663411731808,-9.906077879234765
2.4,-10.794042105447181,-11.479075273904922,-10.126257760789906
2.45,-11.030744405013758,-11.732359134696035,-10.347041292837737
2.5,-11.268191352001447,-11.986534818969444,-10.568441987897142
2.55,-11.506399445140294,-12.2416222459196,-10.790473413141402
2.6,-11.745385256421335,-12.497641430017898,-11.013149191134215
2.7,-12.225756692513935,-13.01255560905045,-11.46048857677923
2.75,-12.46717583468326,-13.271491116698797,-11.685179712711605
2.8,-12.709439731073788,-13.53143940822651,-11.91057025920528
2.85,-12.952565331137707,-13.792420985776992,-12.136674125731188
2.9,-13.196569661659044,-14.054456450646812,-12.363505280896648
2.95,-13.441469827224582,-14.317566503592392,-12.591077752944832
3,-13.687283010628365,-14.58177194502808,-12.819405630214414
3.05,-13.934026473207165,-14.847093675110502,-13.04850306155786
3.1,-14.181717555103635,-15.11355269370429,-13.278384256716611
3.15,-14.430373675454279,-15.381170100223965,-13.509063486651208
3.2,-14.680012332499194,-15.649967093346659,-13.740555083825011
3.3,-15.182307645232752,-16.19118512775051,-14.20603301861629
3.4,-15.688745060206529,-16.737378351991403,-14.674933958499714
3.5,-16.1994674026194,-17.288719867205057,-15.147374794528291
3.6,-16.71461874364148,-17.845384285196307,-15.623473411073427
3.7,-17.234344381452885,-18.407547682031797,-16.103348681576254
3.9,-18.28810571072898,-19.54908267501456,-17.074909568155373
4,-18.822437859238512,-20.128813154378765,-17.566837777071488
4.1,-19.361937125331156,-20.714760193981462,-18.06302778452571
4.2,-19.90675438669582,-21.30710604368499,-18.563603185875618
4.32,-20.567768677723155,-22.02662542290242,-19.170257682870876
4.45,-21.293062179245307,-22.81716918723499,-19.83504655408016
4.58,-22.02824716972135,-23.619615195901048,-20.50798886994712
4.75,-23.005132670571584,-24.687602782766618,-21.400758025071053
4.88,-23.76444129894048,-25.519066333558623,-22.093585331064492
5,-24.475112848951216,-26.29831755358916,-22.74117430784109
5.15,-25.377062813393586,-27.288733581175187,-23.561885098782778
5.3,-26.294623350215492,-28.297889404722874,-24.39547542288769
5.5,-27.54321771479539,-29.67362098756126,-25.52771908540134
5.65,-28.49921401958952,-30.728823664267125,-26.39305888399569
5.8,-29.47252879893551,-31.804718474649725,-27.27272850081507
6,-30.798072695574753,-33.27237053321456,-28.468651844281947
6.15,-31.81369256013765,-34.39861868094642,-29.383413566132475
6.3,-32.84821804024187,-35.54726194584618,-30.31390758174195
6.45,-33.902085152115816,-36.71873518497257,-31.260535711362724
6.6,-34.97570491259789,-37.913427681887235,-32.22368722423873
6.75,-36.0694592026527,-39.131676595063084,-33.20373636438268
6.88,-37.03393635902634,-40.206763470476346,-34.067056678150266
7,-37.938055227885734,-41.21516462218983,-34.875660993839425
7.15,-39.08709807061487,-42.4974068622286,-35.90245610262998
7.32,-40.41499830600803,-43.97990903063536,-37.088047323109706
7.5,-41.85099099757174,-45.583522567829114,-38.3691363682467
7.65,-43.071345149080216,-46.94636486666683,-39.457223140947505
7.8,-44.31328381588515,-48.3330521633924,-40.56415382905462
8,-46.00271081934968,-50.21844704450489,-42.0696089264495
8.2,-47.73015113593146,-52.14445780612535,-43.60900785678056
8.4,-49.495045574139695,-54.10954002715016,-45.182386562837934
8.6,-51.296546567148134,-56.1117343381081,-46.78959834106906
8.8,-53.13349902427493,-58.1486553674284,-48.430296227111675
9,-55.00442474463699,-60.21748933962636,-50.10391622891487
9.2,-56.907511421551845,-62.315001592696184,-51.809661978298095
9.4,-58.84060724601208,-64.4375549674623,-53.54649142769273
9.6,-60.801222033775666,-66.58113958924714,-55.313106255490894
9.8,-62.78653564621589,-68.74141402974848,-57.10794465395331
10,-64.79341424824541,-70.91375723685063,-58.929178151448376
10.2,-66.81843465233582,-73.09332999748376,-60.77471306050346
10.4,-68.85791664852177,-75.27514410759744,-62.64219704136635
10.6,-70.90796283655925,-77.45413692028279,-64.52903112698577
10.8,-72.96450508481949,-79.62524857943556,-66.43238737258528
11,-75.02335637187633,-81.78349906089652,-68.34923207834682
11.2,-77.08026645277728,-83.92406215604156,-70.27635429811822
11.5,-80.15269507332873,-87.09174718954034,-73.17893879666214
11.8,-83.19710933779375,-90.19504832697599,-76.08534346144711
12,-85.20449647791104,-92.22188626590248,-78.0191626213752
12.2,-87.1897272145633,-94.211290475288,-79.94582864814309
12.5,-90.11849879374202,-97.11920445048617,-82.81484551835813
12.8,-92.97913850640721,-99.9290387643549,-85.64872433901215
13,-94.84390428103538,-101.74494179772904,-87.51324695973963
13.2,-96.67215770246173,-103.51358256139747,-89.35462033921893
13.5,-99.34202464987462,-106.07628478608942,-92.06757904384467
13.8,-101.92054856040313,-108.52964745320048,-94.71472807270054
14,-103.58706703657474,-110.10450717460527,-96.43964518854344
14.2,-105.21078820680583,-111.631178047332,-98.13076547684929
14.5,-107.56535135670109,-113.83211645309173,-100.60119336127337
14.8,-109.82251144707728,-115.92856727150983,-102.98910357411741
15,-111.27349985638875,-117.2697625713026,-104.53401893251562
15.5,-114.71616590304276,-120.43341423393501,-108.22909187706884
16,-117.9037490161043,-123.34205107449552,-111.6850861503463
16.5,-120.85037302883586,-126.01593015057493,-114.90667120492529
17,-123.57225153724136,-128.47537550811182,-117.90283770737295
17.5,-126.08645798041744,-130.7399930063308,-120.68542294976196
18,-128.4100577290725,-132.82820520561086,-123.26790946850598
18.5,-130.55953487812667,-134.75701320449392,-125.66450615937747
19,-132.55044348772472,-136.54191119846575,-127.88948429178038
19.5,-134.397221008785,-138.19689846389846,-129.9567247378994
20,-136.11311357615165,-139.73454956141876,-131.87942988684472
20.5,-137.71017491809087,-141.16611606183022,-133.6699579460886
21,-139.19931108564282,-142.5016422825521,-135.3397444729959
21.5,-140.5903515308786,-143.7500839979063,-136.89928359428217
22,-141.89213334210146,-144.91942350823913,-138.3581482516966
22.5,-143.11258999954757,-146.0167773889839,-139.7250345006375
23,-144.2588392222399,-147.04849513728175,-141.00781933394597
23.5,-145.3372666773307,-148.02024812103144,-142.21362484298282
24,-146.35360379720544,-148.93710894889537,-143.3488839633286
24.5,-147.31299891171275,-149.80362178353693,-144.41940478510045
25,-148.2200815117813,-150.62386432562465,-145.43043161398268
25.5,-149.07901983025957,-151.40150227747745,-146.38670179077593
26,-149.89357213614932,-152.13983710181168,-147.29249782407894
27,-151.40276978742068,-153.5102278138081,-148.9678028075197
27.5,-152.10326578126583,-154.14741655196383,-149.74400580566143
28,-152.77114402074872,-154.7556280404433,-150.48319530992006
28.5,-153.40869876857025,-155.33687529191656,-151.18800120002805
29,-154.01801918610863,-155.89299199446785,-151.86081883730486
29.5,-154.601010896233,-156.4256515280237,-152.5038332259566
30,-155.1594150288404,-156.936383703825,-153.11904048621392
30.5,-155.6948250586933,-157.42658952214825,-153.7082669371766
31,-156.2087017078557,-157.897554203817,-154.2731860599045
31.5,-156.70238615141565,-158.35045871654552,-154.81533358408964
32,-157.17711173522272,-158.7863899872779,-155.33612091562435
33,-158.0741418860131,-159.6112636832876,-156.31870947938415
34,-158.90787042048768,-160.3793101488832,-157.23017987083847
35,-159.6852089303376,-161.0966453431975,-158.0784144300139
36,-160.41210350109031,-161.7685410374034,-158.8701823186623
37,-161.09369638158853,-162.3995652148594,-159.6113267145133
39,-162.33828685549764,-163.55441231496266,-160.96136836448426
40,-162.908609429496,-164.0847731871273,-161.57854984034407
41,-163.4484388868642,-164.587476539868,-162.16185994725453
42,-163.96044076668053,-165.06491266489115,-162.71429883194253
43.2,-164.54142319857743,-165.60745928444226,-163.34019669834373
44.5,-165.13359860978548,-166.1613506435009,-163.9770622861181
45.8,-165.69093650568627,-166.68351344400088,-164.5754234055237
47.5,-166.37290732279095,-167.32362824767424,-165.30617022191998
48.8,-166.86236248591283,-167.7838875507201,-165.82963000868293
50,-167.29198729328374,-168.18849663485352,-166.28838450395781
51.5,-167.80185059809287,-168.66945052447343,-166.8319117717227
53,-168.28437955417232,-169.12543942628767,-167.3453549385171
55,-168.88983500215775,-169.69879375048257,-167.9882311664139
56.5,-169.31849284003647,-170.10558463502397,-168.4424112856268
58,-169.7276009676071,-170.49453198112252,-168.87508517826694
60,-170.24571407992585,-170.9881706406781,-169.42187083005712
61.5,-170.6157934322488,-171.34153869510055,-169.81158419639033
63,-170.9715446402118,-171.6818689220854,-170.18550809520545
64.5,-171.31419642727187,-172.01029655440468,-170.54498233297065
66,-171.6448566368911,-172.32784684229347,-170.8912128216214
67.5,-171.96452726942903,-172.63544860972735,-171.22528840461285
68.8,-172.23339056992543,-172.89464389203468,-171.50575320832183
70,-172.4753218243771,-173.1282685398759,-171.75770719527932
71.5,-172.76991246980228,-173.41326758747567,-172.0639498160753
73.2,-173.09410721313736,-173.72759907005343,-172.4002395087393
75,-173.42717124727133,-174.05132013016933,-172.74490206586404
76.5,-173.6974286737497,-174.31461032118102,-173.02393061425443
78,-173.9616275569496,-174.57255031380495,-173.29613019655645
80,-174.30531850210667,-174.90894643853764,-173.6493516377206
82,-174.64018753694856,-175.23766371450947,-173.99252005621545
84,-174.9672061408984,-175.5596186058516,-174.32667273515466
86,-175.28725699563478,-175.8756458071599,-174.6527499440486
88,-175.60114489709576,-176.18650823465663,-174.97160694179098
90,-175.9096060948242,-176.4929055876949,-175.28402423588045
92,-176.2133163183905,-176.7954817150736,-175.5907163880782
94,-176.5128977025466,-177.094830977504,-175.89233960259963
96,-176.80892478449303,-177.39150376318327,-176.18949828994843
98,-177.10192971599363,-177.68601128585854,-176.4827507651377
100,-177.39240680840592,-177.97882977253226,-176.7726142114247
102,-177.68081650872742,-178.27040412994478,-177.05956901836743
104,-177.9675888885201,-178.56115116429334,-177.34406258488679
106,-178.25312671430308,-178.85146241663756,-177.6265126632268
108,-178.53780815710712,-179.1417066665691,-177.9073103075801
110,-178.8219891899005,-179.4322321485709,-178.18682248115698
112,-179.10600571415335,-179.72336851873249,-178.4653943672217
115,-179.53241250833278,-180.16189858329952,-178.88219615478576
118,-179.9601644689416,-180.60349626607788,-179.29863501801862
120,-180.24654257365876,-180.9000585657356,-179.57652934639995
122,-180.53419408957797,-181.19865638635378,-179.8549471919978
125,-180.96860039025123,-181.65091177706432,-180.2741008157311
128,-181.40722605581726,-182.10910580084592,-180.69579330487585
130,-181.70235969600316,-182.418243599467,-180.9787041165931
132,-181.99991529512837,-182.73057348893073,-181.26328834108352
135,-182.45123613525294,-183.205507286412,-181.69374445906996
138,-182.90912915223376,-183.68876708213398,-182.1290758489188
140,-183.21835612232218,-184.01588705602612,-182.42231371413496
142,-183.53096672308476,-184.34718183029474,-182.71817246079294
145,-184.00661028538207,-184.85234656034598,-183.16724894161615
148,-184.4908359348012,-185.36790380071685,-183.6231666068469
150,-184.81869497803095,-185.71766588991835,-183.9311782900157
155,-185.65714436413163,-186.61446936482199,-184.71655704739663
160,-186.5243548829702,-187.54524571522654,-185.52569586443133
165,-187.4226033975527,-188.51236178634315,-186.36078262508855
170,-188.35405996017533,-189.518070561191,-187.22389904223775
175,-189.3207958572761,-190.56451404525848,-188.11703276119036
180,-190.3247873939612,-191.65372137721081,-189.042085534543
185,-191.36791573019607,-192.78760240483436,-190.00087786674476
190,-192.4519629741821,-193.9679368866642,-190.99515040313085
195,-193.5786046668575,-195.19635944248355,-192.02656224675388
200,-194.74939875073554,-196.47434037812712,-193.09668632139974
205,-195.96577110455053,-197.8031625515584,-194.2070018571772
210,-197.22899774201056,-199.1838945286546,-195.35888405417185
215,-198.5401838188196,-200.61736039905944,-196.5535909792201
220,-199.9002396677681,-202.1041067842713,-197.79224777105063
225,-201.3098541874755,-203.64436776900436,-199.0758282704707
230,-202.76946604560507,-205.23802871654726,-200.40513425560954
235,-204.2792333195045,-206.88459017856258,-201.7807725477622
240,-205.83900238105812,-208.58313336329323,-203.2031303605568
245,-207.4482770294424,-210.3322888614075,-204.6723493920579
250,-209.10618907288548,-212.1302105182215,-206.18829930218493
255,-210.81147174169203,-213.97455645334665,-207.75055137019262
260,-212.56243745916757,-215.86247923132805,-209.3583532798861
270,-216.19247371768947,-219.755157515013,-212.7058448164485
275,-218.06595813703169,-221.75176510383045,-214.4422232371382
280,-219.9739645419836,-223.77572279440483,-216.21750531979887
285,-221.91263013356937,-225.821937586191,-218.02906338796373
290,-223.8777134176868,-227.88501881362768,-219.87388476489664
295,-225.86463962696428,-229.95935732694787,-221.7485874987529
300,-227.86855699476874,-232.03921286595977,-223.64944568510006
